"";"cépage";"echantillon";"date_sp";"malate";"tartrate";"glucose";"fructose";"shikimate";"somme_GF";"rapport_GF";"rapport_MT";"Notes";"Berry";"DateDOY";"poids_baie";"millesime";"couleur";"NIRS.908.1";"NIRS.914.294";"NIRS.920.489";"NIRS.926.683";"NIRS.932.877";"NIRS.939.072";"NIRS.945.266";"NIRS.951.46";"NIRS.957.655";"NIRS.963.849";"NIRS.970.044";"NIRS.976.238";"NIRS.982.432";"NIRS.988.627";"NIRS.994.821";"NIRS.1001.015";"NIRS.1007.21";"NIRS.1013.404";"NIRS.1019.598";"NIRS.1025.793";"NIRS.1031.987";"NIRS.1038.181";"NIRS.1044.376";"NIRS.1050.57";"NIRS.1056.764";"NIRS.1062.959";"NIRS.1069.153";"NIRS.1075.348";"NIRS.1081.542";"NIRS.1087.736";"NIRS.1093.931";"NIRS.1100.125";"NIRS.1106.319";"NIRS.1112.514";"NIRS.1118.708";"NIRS.1124.902";"NIRS.1131.097";"NIRS.1137.291";"NIRS.1143.485";"NIRS.1149.68";"NIRS.1155.874";"NIRS.1162.069";"NIRS.1168.263";"NIRS.1174.457";"NIRS.1180.652";"NIRS.1186.846";"NIRS.1193.04";"NIRS.1199.235";"NIRS.1205.429";"NIRS.1211.623";"NIRS.1217.818";"NIRS.1224.012";"NIRS.1230.206";"NIRS.1236.401";"NIRS.1242.595";"NIRS.1248.789";"NIRS.1254.984";"NIRS.1261.178";"NIRS.1267.373";"NIRS.1273.567";"NIRS.1279.761";"NIRS.1285.956";"NIRS.1292.15";"NIRS.1298.344";"NIRS.1304.539";"NIRS.1310.733";"NIRS.1316.927";"NIRS.1323.122";"NIRS.1329.316";"NIRS.1335.51";"NIRS.1341.705";"NIRS.1347.899";"NIRS.1354.094";"NIRS.1360.288";"NIRS.1366.482";"NIRS.1372.677";"NIRS.1378.871";"NIRS.1385.065";"NIRS.1391.26";"NIRS.1397.454";"NIRS.1403.648";"NIRS.1409.843";"NIRS.1416.037";"NIRS.1422.231";"NIRS.1428.426";"NIRS.1434.62";"NIRS.1440.814";"NIRS.1447.009";"NIRS.1453.203";"NIRS.1459.398";"NIRS.1465.592";"NIRS.1471.786";"NIRS.1477.981";"NIRS.1484.175";"NIRS.1490.369";"NIRS.1496.564";"NIRS.1502.758";"NIRS.1508.952";"NIRS.1515.147";"NIRS.1521.341";"NIRS.1527.535";"NIRS.1533.73";"NIRS.1539.924";"NIRS.1546.119";"NIRS.1552.313";"NIRS.1558.507";"NIRS.1564.702";"NIRS.1570.896";"NIRS.1577.09";"NIRS.1583.285";"NIRS.1589.479";"NIRS.1595.673";"NIRS.1601.868";"NIRS.1608.062";"NIRS.1614.256";"NIRS.1620.451";"NIRS.1626.645";"NIRS.1632.839";"NIRS.1639.034";"NIRS.1645.228";"NIRS.1651.423";"NIRS.1657.617";"NIRS.1663.811";"NIRS.1670.006";"NIRS.1676.2"
"1";"carmenere";"Etalon3-9";2022-07-26; 59.1012151;162.52445; 351.65854; 281.783183; 316.09453; 633.44173;1.2479756; 0.363645072;"carmenere";"9";207;0.6620;"2022";"rouge"; 3.442711e-01; 3.518040e-01; 3.654087e-01; 3.479448e-01; 3.123526e-01; 3.175344e-01; 3.232981e-01; 3.354090e-01; 3.574090e-01; 3.909372e-01; 4.252529e-01; 4.413349e-01; 4.603989e-01; 4.673693e-01; 4.645127e-01; 4.489906e-01; 4.331151e-01; 4.180106e-01; 4.007277e-01; 3.880299e-01; 3.755805e-01; 3.623935e-01; 3.510800e-01; 3.411644e-01; 3.301457e-01; 3.218434e-01; 3.162946e-01; 3.112976e-01; 3.061377e-01; 3.020303e-01; 2.972596e-01; 2.914183e-01; 2.837842e-01; 2.698493e-01; 2.584021e-01; 2.582361e-01; 2.644508e-01; 2.762296e-01; 2.823223e-01; 2.882721e-01; 2.995728e-01; 3.107758e-01; 3.168017e-01; 3.176227e-01; 3.170109e-01; 3.174755e-01; 3.177410e-01; 3.158667e-01; 3.151555e-01; 3.155955e-01; 3.160564e-01; 3.160935e-01; 3.158900e-01; 3.151485e-01; 3.138163e-01; 3.117696e-01; 3.088908e-01; 3.047518e-01; 3.030283e-01; 3.037576e-01; 3.050795e-01; 3.059320e-01; 3.057469e-01; 3.040196e-01; 3.021699e-01; 3.003242e-01; 2.988418e-01; 2.969136e-01; 2.937891e-01; 2.916009e-01; 2.878692e-01; 2.819110e-01; 2.783709e-01; 2.780291e-01; 2.785134e-01; 2.795874e-01; 2.810659e-01; 2.829152e-01; 2.848536e-01; 2.870235e-01; 2.886843e-01; 2.901038e-01; 2.913404e-01; 2.922971e-01; 2.930491e-01; 2.934802e-01; 2.938731e-01; 2.944975e-01; 2.954472e-01; 2.958198e-01; 2.952370e-01; 2.949984e-01; 2.949439e-01; 2.953723e-01; 2.963617e-01; 2.973715e-01; 2.980005e-01; 2.986295e-01; 2.989586e-01; 2.991826e-01; 2.992354e-01; 2.991429e-01; 2.988740e-01; 2.986321e-01; 2.982005e-01; 2.977463e-01; 2.971699e-01; 2.963383e-01; 2.958449e-01; 2.955935e-01; 2.953357e-01; 2.950468e-01; 2.946135e-01; 2.941833e-01; 2.940142e-01; 2.939453e-01; 2.937813e-01; 2.933540e-01; 2.930081e-01; 2.926120e-01; 2.923685e-01; 2.921759e-01; 2.918743e-01; 2.917017e-01; 2.916282e-01
"2";"carmenere";"Etalon1-34";2022-07-08;351.6347658;177.20380; 168.94895; 107.467335; 804.61709; 276.41629;1.5720958; 1.984352330;NA;"34";189;0.8750;"2022";"rouge"; 2.458767e-01; 2.421817e-01; 2.396675e-01; 2.359047e-01; 2.328246e-01; 2.311959e-01; 2.335494e-01; 2.371431e-01; 2.433522e-01; 2.486353e-01; 2.516060e-01; 2.524242e-01; 2.520767e-01; 2.512301e-01; 2.493184e-01; 2.457281e-01; 2.418195e-01; 2.376819e-01; 2.336347e-01; 2.297405e-01; 2.254039e-01; 2.215658e-01; 2.190903e-01; 2.167148e-01; 2.150040e-01; 2.137423e-01; 2.131944e-01; 2.133271e-01; 2.137986e-01; 2.145159e-01; 2.162370e-01; 2.177882e-01; 2.195390e-01; 2.201409e-01; 2.207796e-01; 2.236310e-01; 2.290748e-01; 2.366885e-01; 2.437048e-01; 2.498108e-01; 2.557489e-01; 2.601387e-01; 2.625021e-01; 2.630795e-01; 2.629178e-01; 2.633995e-01; 2.638535e-01; 2.633872e-01; 2.629655e-01; 2.627993e-01; 2.624795e-01; 2.619839e-01; 2.616224e-01; 2.610157e-01; 2.601830e-01; 2.594157e-01; 2.583828e-01; 2.569645e-01; 2.565622e-01; 2.571007e-01; 2.581722e-01; 2.592275e-01; 2.603210e-01; 2.612652e-01; 2.625214e-01; 2.637315e-01; 2.651675e-01; 2.666690e-01; 2.676303e-01; 2.688348e-01; 2.689056e-01; 2.680347e-01; 2.677378e-01; 2.684317e-01; 2.700687e-01; 2.722283e-01; 2.746278e-01; 2.776151e-01; 2.808948e-01; 2.838236e-01; 2.863564e-01; 2.883524e-01; 2.897280e-01; 2.909592e-01; 2.915663e-01; 2.919537e-01; 2.923686e-01; 2.926926e-01; 2.933954e-01; 2.934269e-01; 2.929600e-01; 2.925017e-01; 2.923414e-01; 2.921600e-01; 2.924350e-01; 2.925321e-01; 2.922774e-01; 2.922540e-01; 2.919315e-01; 2.914980e-01; 2.910182e-01; 2.905037e-01; 2.898102e-01; 2.893594e-01; 2.885676e-01; 2.878982e-01; 2.871932e-01; 2.863692e-01; 2.856209e-01; 2.851369e-01; 2.846892e-01; 2.841751e-01; 2.836014e-01; 2.830329e-01; 2.826435e-01; 2.824204e-01; 2.819197e-01; 2.814794e-01; 2.810125e-01; 2.805984e-01; 2.802752e-01; 2.800054e-01; 2.796675e-01; 2.794584e-01; 2.791884e-01
"3";"carmenere";"Etalon6-2";2022-08-11; 23.6515275;119.42912; 430.24632; 365.081704;  77.86845; 795.32803;1.1784933; 0.198038203;"carmenère";"2";223;1.2470;"2022";"rouge"; 2.434160e-01; 2.394988e-01; 2.375501e-01; 2.365824e-01; 2.355459e-01; 2.371435e-01; 2.363059e-01; 2.378855e-01; 2.389939e-01; 2.410890e-01; 2.406834e-01; 2.426090e-01; 2.425159e-01; 2.410674e-01; 2.399563e-01; 2.390913e-01; 2.376598e-01; 2.357519e-01; 2.341963e-01; 2.313740e-01; 2.294770e-01; 2.281771e-01; 2.267274e-01; 2.257247e-01; 2.250889e-01; 2.248230e-01; 2.245702e-01; 2.249198e-01; 2.256242e-01; 2.265361e-01; 2.278996e-01; 2.293882e-01; 2.311662e-01; 2.334000e-01; 2.353761e-01; 2.371687e-01; 2.401397e-01; 2.441973e-01; 2.485416e-01; 2.519510e-01; 2.538304e-01; 2.553464e-01; 2.565610e-01; 2.570437e-01; 2.573116e-01; 2.576747e-01; 2.580214e-01; 2.580934e-01; 2.580159e-01; 2.579360e-01; 2.577845e-01; 2.577250e-01; 2.573726e-01; 2.570964e-01; 2.569977e-01; 2.566643e-01; 2.564807e-01; 2.560618e-01; 2.559587e-01; 2.563119e-01; 2.566887e-01; 2.573015e-01; 2.579007e-01; 2.585147e-01; 2.593598e-01; 2.603203e-01; 2.614179e-01; 2.624908e-01; 2.635256e-01; 2.646439e-01; 2.653737e-01; 2.658951e-01; 2.663278e-01; 2.670198e-01; 2.679107e-01; 2.689589e-01; 2.704907e-01; 2.723259e-01; 2.742920e-01; 2.761110e-01; 2.780292e-01; 2.791812e-01; 2.798764e-01; 2.805556e-01; 2.808765e-01; 2.811276e-01; 2.811550e-01; 2.812111e-01; 2.814936e-01; 2.812677e-01; 2.810578e-01; 2.808578e-01; 2.805493e-01; 2.803523e-01; 2.801654e-01; 2.798610e-01; 2.797032e-01; 2.794687e-01; 2.791167e-01; 2.787494e-01; 2.784013e-01; 2.780338e-01; 2.776159e-01; 2.772014e-01; 2.768489e-01; 2.763946e-01; 2.760023e-01; 2.754914e-01; 2.751587e-01; 2.749153e-01; 2.745676e-01; 2.742587e-01; 2.739327e-01; 2.735218e-01; 2.732085e-01; 2.731251e-01; 2.727234e-01; 2.724422e-01; 2.722388e-01; 2.720022e-01; 2.717870e-01; 2.715787e-01; 2.712986e-01; 2.710557e-01; 2.707370e-01
"4";"carmenere";"Etalon8-52";2022-08-24; 22.3725359;135.70698; 599.68899; 549.264479;  43.38586;1148.95347;1.0918037; 0.164859134;NA;"52";236;1.0230;"2022";"rouge"; 2.506440e-01; 2.518820e-01; 2.475430e-01; 2.479350e-01; 2.461430e-01; 2.483690e-01; 2.501490e-01; 2.544400e-01; 2.610590e-01; 2.714580e-01; 2.831550e-01; 2.886290e-01; 2.944630e-01; 2.984740e-01; 2.965350e-01; 2.893420e-01; 2.815370e-01; 2.739630e-01; 2.657170e-01; 2.578320e-01; 2.505860e-01; 2.434390e-01; 2.377040e-01; 2.333610e-01; 2.290270e-01; 2.264600e-01; 2.257620e-01; 2.258670e-01; 2.266920e-01; 2.281450e-01; 2.306480e-01; 2.327930e-01; 2.347140e-01; 2.356080e-01; 2.365700e-01; 2.389990e-01; 2.429910e-01; 2.492950e-01; 2.546730e-01; 2.595590e-01; 2.663420e-01; 2.736760e-01; 2.783470e-01; 2.803730e-01; 2.806760e-01; 2.814430e-01; 2.820240e-01; 2.817320e-01; 2.816830e-01; 2.820550e-01; 2.828170e-01; 2.831480e-01; 2.831570e-01; 2.827460e-01; 2.818440e-01; 2.806060e-01; 2.785940e-01; 2.755550e-01; 2.746680e-01; 2.757420e-01; 2.769490e-01; 2.775700e-01; 2.774940e-01; 2.766600e-01; 2.756520e-01; 2.748290e-01; 2.744790e-01; 2.737280e-01; 2.722600e-01; 2.718100e-01; 2.709960e-01; 2.693160e-01; 2.686810e-01; 2.689610e-01; 2.696800e-01; 2.706300e-01; 2.715040e-01; 2.724290e-01; 2.734160e-01; 2.744280e-01; 2.751040e-01; 2.757990e-01; 2.761570e-01; 2.761940e-01; 2.763130e-01; 2.761990e-01; 2.760070e-01; 2.760320e-01; 2.763340e-01; 2.762280e-01; 2.758840e-01; 2.757540e-01; 2.757350e-01; 2.760200e-01; 2.766940e-01; 2.775660e-01; 2.783630e-01; 2.791110e-01; 2.795940e-01; 2.800870e-01; 2.804290e-01; 2.804550e-01; 2.806710e-01; 2.807770e-01; 2.805650e-01; 2.803530e-01; 2.800400e-01; 2.795130e-01; 2.791560e-01; 2.790590e-01; 2.790660e-01; 2.789040e-01; 2.786270e-01; 2.784190e-01; 2.783900e-01; 2.784980e-01; 2.783100e-01; 2.781300e-01; 2.778230e-01; 2.775940e-01; 2.774710e-01; 2.773420e-01; 2.771220e-01; 2.769610e-01; 2.767800e-01
"5";"carmenere";"Etalon1-32";2022-07-08;400.9190522;177.08135;  94.84255;  43.823859; 632.67416; 138.66641;2.1641761; 2.264038892;NA;"32";189;1.1760;"2022";"rouge"; 2.544047e-01; 2.481106e-01; 2.462301e-01; 2.431467e-01; 2.382421e-01; 2.380064e-01; 2.389995e-01; 2.434814e-01; 2.471629e-01; 2.535653e-01; 2.576261e-01; 2.581561e-01; 2.584955e-01; 2.584953e-01; 2.574575e-01; 2.538283e-01; 2.492690e-01; 2.457502e-01; 2.417857e-01; 2.379151e-01; 2.341383e-01; 2.298267e-01; 2.273114e-01; 2.248166e-01; 2.231896e-01; 2.215250e-01; 2.207837e-01; 2.204678e-01; 2.206122e-01; 2.215835e-01; 2.224944e-01; 2.235874e-01; 2.244940e-01; 2.242468e-01; 2.243361e-01; 2.265561e-01; 2.316615e-01; 2.391047e-01; 2.454592e-01; 2.510504e-01; 2.569693e-01; 2.612062e-01; 2.635640e-01; 2.641937e-01; 2.641972e-01; 2.645178e-01; 2.647765e-01; 2.644887e-01; 2.640632e-01; 2.640319e-01; 2.639392e-01; 2.633671e-01; 2.629457e-01; 2.626668e-01; 2.620857e-01; 2.612211e-01; 2.600700e-01; 2.584423e-01; 2.580451e-01; 2.587097e-01; 2.597878e-01; 2.607300e-01; 2.616783e-01; 2.624851e-01; 2.633709e-01; 2.643439e-01; 2.656381e-01; 2.667917e-01; 2.675213e-01; 2.685273e-01; 2.685725e-01; 2.674472e-01; 2.671610e-01; 2.677698e-01; 2.693557e-01; 2.714467e-01; 2.742666e-01; 2.775717e-01; 2.810768e-01; 2.842315e-01; 2.870141e-01; 2.890125e-01; 2.904617e-01; 2.915405e-01; 2.921773e-01; 2.927006e-01; 2.929774e-01; 2.932769e-01; 2.940021e-01; 2.941091e-01; 2.936220e-01; 2.932086e-01; 2.929615e-01; 2.928913e-01; 2.930975e-01; 2.932484e-01; 2.930392e-01; 2.928954e-01; 2.925598e-01; 2.921151e-01; 2.915701e-01; 2.910031e-01; 2.902461e-01; 2.896416e-01; 2.888994e-01; 2.881261e-01; 2.874148e-01; 2.864439e-01; 2.856460e-01; 2.851259e-01; 2.846761e-01; 2.840768e-01; 2.834888e-01; 2.828354e-01; 2.824244e-01; 2.822140e-01; 2.817446e-01; 2.812699e-01; 2.808241e-01; 2.804005e-01; 2.799720e-01; 2.797231e-01; 2.794302e-01; 2.792270e-01; 2.789444e-01
"6";"carmenere";"Etalon1-33";2022-07-08;308.3876489;130.66510;  69.70121;  33.703745; 512.40621; 103.40496;2.0680554; 2.360137799;NA;"33";189;1.2990;"2022";"rouge"; 2.550299e-01; 2.506929e-01; 2.479504e-01; 2.472682e-01; 2.433323e-01; 2.427262e-01; 2.449203e-01; 2.488782e-01; 2.563576e-01; 2.621644e-01; 2.661643e-01; 2.670506e-01; 2.676384e-01; 2.671426e-01; 2.655853e-01; 2.625468e-01; 2.575723e-01; 2.528900e-01; 2.487194e-01; 2.443688e-01; 2.405824e-01; 2.366944e-01; 2.333579e-01; 2.307912e-01; 2.289153e-01; 2.273854e-01; 2.261830e-01; 2.261788e-01; 2.266635e-01; 2.274129e-01; 2.284113e-01; 2.295441e-01; 2.309709e-01; 2.308484e-01; 2.309646e-01; 2.333844e-01; 2.389783e-01; 2.469381e-01; 2.535335e-01; 2.592581e-01; 2.652542e-01; 2.695675e-01; 2.718078e-01; 2.724698e-01; 2.722728e-01; 2.725638e-01; 2.728564e-01; 2.723835e-01; 2.718006e-01; 2.716834e-01; 2.715307e-01; 2.710674e-01; 2.705766e-01; 2.699530e-01; 2.693751e-01; 2.685046e-01; 2.672868e-01; 2.656626e-01; 2.651615e-01; 2.657858e-01; 2.668530e-01; 2.677879e-01; 2.687141e-01; 2.694934e-01; 2.702553e-01; 2.711554e-01; 2.723724e-01; 2.732682e-01; 2.737818e-01; 2.745471e-01; 2.743138e-01; 2.728540e-01; 2.722481e-01; 2.726224e-01; 2.739431e-01; 2.755914e-01; 2.776609e-01; 2.802321e-01; 2.830519e-01; 2.854471e-01; 2.875647e-01; 2.892223e-01; 2.904317e-01; 2.912872e-01; 2.917807e-01; 2.921707e-01; 2.923913e-01; 2.926337e-01; 2.934549e-01; 2.933840e-01; 2.929499e-01; 2.926129e-01; 2.925126e-01; 2.923315e-01; 2.927128e-01; 2.928667e-01; 2.927718e-01; 2.927420e-01; 2.925200e-01; 2.921837e-01; 2.917465e-01; 2.912727e-01; 2.907172e-01; 2.901545e-01; 2.894554e-01; 2.888672e-01; 2.881026e-01; 2.873167e-01; 2.866125e-01; 2.862566e-01; 2.858345e-01; 2.852663e-01; 2.847356e-01; 2.842084e-01; 2.838355e-01; 2.835849e-01; 2.831520e-01; 2.826582e-01; 2.821849e-01; 2.817785e-01; 2.814128e-01; 2.811644e-01; 2.808434e-01; 2.805174e-01; 2.800603e-01
"7";"carmenere";"Etalon3-8";2022-07-26; 37.9649041;113.32483; 255.12121; 217.745239;  99.32072; 472.86645;1.1716500; 0.335009586;"carmenere";"8";207;0.8250;"2022";"rouge"; 3.271329e-01; 3.326021e-01; 3.435942e-01; 3.309804e-01; 3.037483e-01; 3.068179e-01; 3.135989e-01; 3.274274e-01; 3.473116e-01; 3.786079e-01; 4.125067e-01; 4.256259e-01; 4.388858e-01; 4.459306e-01; 4.405091e-01; 4.253408e-01; 4.108420e-01; 3.956622e-01; 3.791078e-01; 3.660439e-01; 3.540295e-01; 3.417364e-01; 3.306626e-01; 3.210670e-01; 3.124355e-01; 3.051527e-01; 3.000642e-01; 2.961301e-01; 2.924275e-01; 2.896995e-01; 2.862087e-01; 2.822783e-01; 2.766986e-01; 2.652488e-01; 2.559362e-01; 2.561081e-01; 2.626762e-01; 2.743907e-01; 2.811955e-01; 2.878711e-01; 2.994855e-01; 3.106427e-01; 3.169036e-01; 3.179197e-01; 3.174187e-01; 3.177493e-01; 3.180833e-01; 3.164252e-01; 3.153959e-01; 3.155476e-01; 3.156576e-01; 3.155046e-01; 3.152110e-01; 3.143117e-01; 3.127093e-01; 3.105379e-01; 3.075232e-01; 3.033573e-01; 3.017154e-01; 3.024731e-01; 3.038262e-01; 3.046178e-01; 3.046177e-01; 3.034172e-01; 3.020443e-01; 3.007163e-01; 2.998152e-01; 2.982452e-01; 2.955595e-01; 2.941932e-01; 2.908993e-01; 2.848505e-01; 2.818212e-01; 2.814976e-01; 2.821181e-01; 2.834895e-01; 2.850178e-01; 2.867588e-01; 2.885359e-01; 2.903902e-01; 2.917333e-01; 2.929332e-01; 2.939860e-01; 2.948630e-01; 2.954809e-01; 2.957597e-01; 2.962297e-01; 2.968025e-01; 2.978234e-01; 2.980919e-01; 2.976678e-01; 2.973974e-01; 2.973974e-01; 2.978491e-01; 2.988925e-01; 2.999354e-01; 3.006695e-01; 3.012686e-01; 3.018220e-01; 3.020166e-01; 3.021720e-01; 3.020164e-01; 3.019038e-01; 3.016834e-01; 3.013178e-01; 3.007671e-01; 3.002807e-01; 2.994505e-01; 2.988340e-01; 2.986468e-01; 2.983527e-01; 2.980793e-01; 2.976587e-01; 2.972603e-01; 2.969988e-01; 2.969938e-01; 2.967160e-01; 2.963302e-01; 2.958212e-01; 2.953935e-01; 2.951030e-01; 2.948653e-01; 2.945388e-01; 2.941637e-01; 2.938177e-01
"8";"carmenere";"Etalon1-31";2022-07-08;348.8322045;181.34329; 108.51948;  62.863709; 541.99954; 171.38319;1.7262659; 1.923601338;NA;"31";189;1.0110;"2022";"rouge"; 2.519563e-01; 2.465355e-01; 2.444739e-01; 2.406386e-01; 2.358796e-01; 2.357935e-01; 2.368263e-01; 2.404823e-01; 2.460324e-01; 2.517688e-01; 2.562018e-01; 2.569927e-01; 2.564697e-01; 2.556893e-01; 2.537442e-01; 2.501884e-01; 2.463573e-01; 2.416056e-01; 2.376759e-01; 2.336496e-01; 2.294338e-01; 2.255521e-01; 2.226948e-01; 2.201473e-01; 2.182437e-01; 2.168285e-01; 2.159172e-01; 2.158714e-01; 2.163288e-01; 2.170973e-01; 2.183223e-01; 2.196693e-01; 2.208646e-01; 2.209901e-01; 2.212751e-01; 2.238206e-01; 2.298219e-01; 2.379201e-01; 2.451622e-01; 2.517983e-01; 2.579879e-01; 2.624891e-01; 2.647371e-01; 2.654248e-01; 2.655604e-01; 2.660205e-01; 2.663111e-01; 2.659961e-01; 2.653112e-01; 2.651148e-01; 2.649997e-01; 2.644144e-01; 2.638867e-01; 2.633013e-01; 2.624498e-01; 2.615993e-01; 2.605751e-01; 2.589896e-01; 2.584772e-01; 2.591350e-01; 2.603349e-01; 2.614349e-01; 2.626331e-01; 2.636100e-01; 2.647276e-01; 2.660117e-01; 2.677777e-01; 2.693233e-01; 2.702769e-01; 2.716306e-01; 2.716635e-01; 2.705873e-01; 2.702866e-01; 2.708549e-01; 2.722752e-01; 2.741362e-01; 2.763528e-01; 2.788806e-01; 2.816750e-01; 2.841368e-01; 2.861349e-01; 2.877863e-01; 2.888944e-01; 2.899148e-01; 2.904592e-01; 2.908718e-01; 2.912440e-01; 2.916644e-01; 2.922249e-01; 2.923903e-01; 2.918684e-01; 2.916611e-01; 2.914382e-01; 2.913962e-01; 2.917766e-01; 2.920672e-01; 2.919261e-01; 2.920171e-01; 2.918027e-01; 2.915265e-01; 2.910881e-01; 2.906919e-01; 2.901864e-01; 2.896838e-01; 2.891929e-01; 2.885547e-01; 2.878894e-01; 2.871545e-01; 2.865293e-01; 2.861482e-01; 2.858333e-01; 2.854029e-01; 2.848590e-01; 2.844262e-01; 2.840658e-01; 2.838446e-01; 2.835329e-01; 2.830706e-01; 2.826664e-01; 2.822584e-01; 2.819756e-01; 2.818317e-01; 2.815409e-01; 2.813427e-01; 2.812261e-01
"9";"carmenere";"Etalon2-31";2022-07-15;145.7484957;129.47495; 280.70641; 210.336861; 810.81981; 491.04328;1.3345564; 1.125688772;NA;"31";196;0.9570;"2022";"rouge"; 2.991427e-01; 3.010053e-01; 3.064732e-01; 2.960760e-01; 2.789564e-01; 2.817152e-01; 2.842099e-01; 2.912067e-01; 3.066358e-01; 3.308753e-01; 3.594847e-01; 3.681249e-01; 3.819504e-01; 3.916045e-01; 3.908895e-01; 3.809783e-01; 3.686886e-01; 3.577246e-01; 3.466422e-01; 3.361466e-01; 3.252225e-01; 3.163741e-01; 3.079610e-01; 3.000138e-01; 2.945262e-01; 2.894799e-01; 2.850638e-01; 2.825715e-01; 2.801875e-01; 2.781489e-01; 2.756225e-01; 2.719769e-01; 2.675696e-01; 2.589900e-01; 2.521344e-01; 2.524231e-01; 2.574029e-01; 2.665272e-01; 2.716542e-01; 2.764609e-01; 2.862671e-01; 2.965514e-01; 3.033737e-01; 3.048931e-01; 3.045928e-01; 3.052203e-01; 3.057845e-01; 3.048368e-01; 3.044850e-01; 3.049565e-01; 3.060177e-01; 3.067642e-01; 3.072587e-01; 3.071520e-01; 3.061901e-01; 3.046290e-01; 3.021194e-01; 2.985639e-01; 2.970917e-01; 2.978047e-01; 2.991731e-01; 2.995210e-01; 2.991075e-01; 2.972104e-01; 2.949286e-01; 2.927157e-01; 2.910840e-01; 2.888283e-01; 2.854905e-01; 2.834631e-01; 2.803712e-01; 2.760494e-01; 2.739763e-01; 2.739939e-01; 2.746666e-01; 2.757715e-01; 2.772937e-01; 2.792974e-01; 2.815675e-01; 2.838884e-01; 2.860023e-01; 2.876454e-01; 2.888784e-01; 2.897382e-01; 2.904226e-01; 2.907603e-01; 2.910861e-01; 2.915908e-01; 2.925970e-01; 2.928308e-01; 2.921584e-01; 2.918760e-01; 2.919325e-01; 2.923226e-01; 2.935924e-01; 2.948591e-01; 2.958222e-01; 2.967233e-01; 2.973511e-01; 2.976931e-01; 2.979902e-01; 2.979905e-01; 2.977907e-01; 2.976542e-01; 2.971267e-01; 2.965814e-01; 2.959209e-01; 2.950278e-01; 2.943222e-01; 2.940716e-01; 2.938128e-01; 2.934437e-01; 2.929782e-01; 2.925110e-01; 2.922736e-01; 2.922080e-01; 2.919827e-01; 2.915778e-01; 2.910895e-01; 2.906959e-01; 2.904634e-01; 2.901880e-01; 2.899245e-01; 2.896989e-01; 2.894018e-01
"10";"carmenere";"Etalon2-32";2022-07-15;168.1901331;120.80504; 266.73477; 203.909437; 722.21719; 470.64421;1.3081041; 1.392244365;NA;"32";196;0.9230;"2022";"rouge"; 3.217288e-01; 3.262585e-01; 3.396249e-01; 3.250336e-01; 2.990978e-01; 3.011475e-01; 3.064801e-01; 3.171562e-01; 3.350550e-01; 3.678477e-01; 4.037517e-01; 4.143091e-01; 4.370229e-01; 4.551469e-01; 4.545929e-01; 4.428420e-01; 4.301351e-01; 4.178505e-01; 4.037854e-01; 3.901124e-01; 3.779154e-01; 3.655882e-01; 3.544694e-01; 3.446204e-01; 3.367469e-01; 3.291243e-01; 3.225193e-01; 3.183601e-01; 3.140216e-01; 3.097637e-01; 3.048175e-01; 2.982626e-01; 2.899745e-01; 2.766363e-01; 2.664855e-01; 2.663673e-01; 2.719836e-01; 2.821614e-01; 2.870891e-01; 2.916466e-01; 3.020645e-01; 3.133610e-01; 3.205814e-01; 3.223266e-01; 3.221602e-01; 3.230066e-01; 3.235255e-01; 3.219854e-01; 3.216561e-01; 3.226745e-01; 3.236042e-01; 3.245128e-01; 3.252360e-01; 3.251987e-01; 3.243007e-01; 3.224061e-01; 3.195222e-01; 3.151447e-01; 3.137031e-01; 3.145319e-01; 3.156992e-01; 3.157239e-01; 3.146793e-01; 3.120042e-01; 3.089219e-01; 3.058876e-01; 3.034626e-01; 3.003931e-01; 2.959320e-01; 2.932377e-01; 2.893894e-01; 2.843499e-01; 2.816266e-01; 2.815158e-01; 2.817109e-01; 2.821333e-01; 2.830369e-01; 2.842266e-01; 2.856668e-01; 2.872841e-01; 2.886240e-01; 2.898163e-01; 2.907796e-01; 2.915086e-01; 2.919372e-01; 2.920762e-01; 2.924775e-01; 2.930740e-01; 2.939343e-01; 2.941805e-01; 2.936773e-01; 2.933317e-01; 2.934549e-01; 2.939814e-01; 2.954939e-01; 2.968486e-01; 2.979758e-01; 2.990894e-01; 2.998154e-01; 3.003641e-01; 3.007150e-01; 3.009100e-01; 3.007509e-01; 3.007430e-01; 3.003730e-01; 3.000526e-01; 2.993559e-01; 2.986281e-01; 2.980323e-01; 2.978352e-01; 2.975959e-01; 2.974209e-01; 2.969210e-01; 2.965581e-01; 2.963738e-01; 2.964352e-01; 2.962887e-01; 2.958716e-01; 2.953451e-01; 2.949927e-01; 2.948144e-01; 2.944579e-01; 2.941230e-01; 2.938746e-01; 2.934998e-01
"11";"carmenere";"Etalon2-33";2022-07-15;136.0212355;125.95312; 256.17712; 198.988668; 728.47895; 455.16578;1.2873955; 1.079935415;NA;"33";196;0.8420;"2022";"rouge"; 2.804427e-01; 2.799999e-01; 2.855886e-01; 2.784862e-01; 2.660369e-01; 2.680542e-01; 2.728820e-01; 2.808146e-01; 2.955019e-01; 3.191410e-01; 3.428898e-01; 3.507091e-01; 3.622864e-01; 3.714132e-01; 3.696047e-01; 3.584889e-01; 3.458569e-01; 3.352355e-01; 3.230465e-01; 3.124752e-01; 3.023700e-01; 2.927185e-01; 2.847978e-01; 2.773065e-01; 2.716410e-01; 2.677432e-01; 2.640188e-01; 2.624288e-01; 2.609897e-01; 2.601781e-01; 2.598761e-01; 2.585571e-01; 2.558768e-01; 2.501747e-01; 2.456395e-01; 2.465713e-01; 2.519174e-01; 2.611666e-01; 2.667334e-01; 2.719069e-01; 2.812119e-01; 2.910571e-01; 2.972817e-01; 2.990569e-01; 2.989261e-01; 2.994556e-01; 2.998668e-01; 2.985319e-01; 2.982636e-01; 2.991467e-01; 2.996998e-01; 3.002497e-01; 3.005072e-01; 3.002641e-01; 2.993297e-01; 2.977938e-01; 2.952145e-01; 2.917081e-01; 2.905179e-01; 2.912467e-01; 2.924454e-01; 2.927227e-01; 2.923195e-01; 2.908073e-01; 2.887515e-01; 2.866975e-01; 2.851821e-01; 2.831057e-01; 2.797441e-01; 2.778243e-01; 2.747364e-01; 2.702243e-01; 2.682799e-01; 2.683583e-01; 2.688504e-01; 2.698927e-01; 2.712107e-01; 2.730122e-01; 2.751937e-01; 2.774640e-01; 2.795122e-01; 2.811747e-01; 2.824079e-01; 2.833672e-01; 2.839228e-01; 2.842760e-01; 2.845238e-01; 2.851194e-01; 2.859892e-01; 2.861813e-01; 2.856309e-01; 2.852740e-01; 2.851336e-01; 2.853985e-01; 2.866124e-01; 2.877063e-01; 2.887524e-01; 2.894818e-01; 2.899786e-01; 2.902972e-01; 2.905808e-01; 2.904624e-01; 2.902709e-01; 2.900007e-01; 2.894479e-01; 2.889675e-01; 2.882469e-01; 2.874175e-01; 2.866974e-01; 2.863057e-01; 2.861158e-01; 2.857372e-01; 2.852127e-01; 2.847542e-01; 2.844702e-01; 2.843218e-01; 2.841227e-01; 2.836893e-01; 2.831964e-01; 2.827515e-01; 2.824753e-01; 2.821337e-01; 2.818757e-01; 2.816367e-01; 2.813223e-01
"12";"carmenere";"Etalon8-55";2022-08-24; 18.3188889; 84.44964; 381.46601; 341.981395;  29.74459; 723.44741;1.1154584; 0.216920875;NA;"55";236;1.4620;"2022";"rouge"; 2.637040e-01; 2.630850e-01; 2.599150e-01; 2.595910e-01; 2.562630e-01; 2.571370e-01; 2.583900e-01; 2.634100e-01; 2.700820e-01; 2.835600e-01; 2.960720e-01; 3.030880e-01; 3.112020e-01; 3.162020e-01; 3.154160e-01; 3.102280e-01; 3.018400e-01; 2.944250e-01; 2.866420e-01; 2.793930e-01; 2.714400e-01; 2.646280e-01; 2.591220e-01; 2.534240e-01; 2.497620e-01; 2.473910e-01; 2.451580e-01; 2.448550e-01; 2.449930e-01; 2.456860e-01; 2.466750e-01; 2.469620e-01; 2.469850e-01; 2.459800e-01; 2.452360e-01; 2.462740e-01; 2.498200e-01; 2.553100e-01; 2.593950e-01; 2.633950e-01; 2.699790e-01; 2.775350e-01; 2.824350e-01; 2.842610e-01; 2.845240e-01; 2.850820e-01; 2.859320e-01; 2.857150e-01; 2.855110e-01; 2.860290e-01; 2.867410e-01; 2.873160e-01; 2.878570e-01; 2.877650e-01; 2.869770e-01; 2.857270e-01; 2.836930e-01; 2.805930e-01; 2.796900e-01; 2.806970e-01; 2.819060e-01; 2.823000e-01; 2.819910e-01; 2.808380e-01; 2.792890e-01; 2.780750e-01; 2.773350e-01; 2.761770e-01; 2.741340e-01; 2.734680e-01; 2.723990e-01; 2.704910e-01; 2.697060e-01; 2.698270e-01; 2.703710e-01; 2.713140e-01; 2.720220e-01; 2.729030e-01; 2.738990e-01; 2.747990e-01; 2.756450e-01; 2.762400e-01; 2.767710e-01; 2.767350e-01; 2.766740e-01; 2.765990e-01; 2.764820e-01; 2.765070e-01; 2.768480e-01; 2.766850e-01; 2.764560e-01; 2.763860e-01; 2.763430e-01; 2.766250e-01; 2.773540e-01; 2.782280e-01; 2.790150e-01; 2.797560e-01; 2.804190e-01; 2.807100e-01; 2.810460e-01; 2.812580e-01; 2.814530e-01; 2.814920e-01; 2.813370e-01; 2.811120e-01; 2.808480e-01; 2.803100e-01; 2.799920e-01; 2.798970e-01; 2.798960e-01; 2.796340e-01; 2.795020e-01; 2.793030e-01; 2.793100e-01; 2.793790e-01; 2.792220e-01; 2.790310e-01; 2.788230e-01; 2.785800e-01; 2.784870e-01; 2.783770e-01; 2.781420e-01; 2.780010e-01; 2.778260e-01
"13";"carmenere";"Etalon3-7";2022-07-26; 36.3386166; 97.53439; 235.24187; 194.253877; 129.19406; 429.49575;1.2110022; 0.372572330;"carmenere";"7";207;1.0840;"2022";"rouge"; 3.409155e-01; 3.476831e-01; 3.639599e-01; 3.526204e-01; 3.227698e-01; 3.302292e-01; 3.378803e-01; 3.519104e-01; 3.750005e-01; 4.142067e-01; 4.505006e-01; 4.644950e-01; 4.827481e-01; 4.917310e-01; 4.881750e-01; 4.719618e-01; 4.558561e-01; 4.386806e-01; 4.223206e-01; 4.071268e-01; 3.920778e-01; 3.791912e-01; 3.672068e-01; 3.563319e-01; 3.469281e-01; 3.386975e-01; 3.325379e-01; 3.275768e-01; 3.232318e-01; 3.192884e-01; 3.147059e-01; 3.094709e-01; 3.019270e-01; 2.876308e-01; 2.760519e-01; 2.755999e-01; 2.810463e-01; 2.915884e-01; 2.961034e-01; 3.009936e-01; 3.123163e-01; 3.232589e-01; 3.295210e-01; 3.305242e-01; 3.298372e-01; 3.299291e-01; 3.299505e-01; 3.280564e-01; 3.270020e-01; 3.273129e-01; 3.278502e-01; 3.278822e-01; 3.277341e-01; 3.271938e-01; 3.255576e-01; 3.232273e-01; 3.202975e-01; 3.157958e-01; 3.141523e-01; 3.148133e-01; 3.159111e-01; 3.164056e-01; 3.160689e-01; 3.140033e-01; 3.115396e-01; 3.092864e-01; 3.073209e-01; 3.046446e-01; 3.007833e-01; 2.983100e-01; 2.939484e-01; 2.874718e-01; 2.838317e-01; 2.830373e-01; 2.833075e-01; 2.840751e-01; 2.853272e-01; 2.868052e-01; 2.885428e-01; 2.902343e-01; 2.915479e-01; 2.928277e-01; 2.939762e-01; 2.948639e-01; 2.954809e-01; 2.957619e-01; 2.961591e-01; 2.967930e-01; 2.978335e-01; 2.980212e-01; 2.974622e-01; 2.972020e-01; 2.970605e-01; 2.975147e-01; 2.985610e-01; 2.996082e-01; 3.002810e-01; 3.008189e-01; 3.013144e-01; 3.015126e-01; 3.015521e-01; 3.013425e-01; 3.011194e-01; 3.009696e-01; 3.004923e-01; 2.999543e-01; 2.994188e-01; 2.986065e-01; 2.980532e-01; 2.978692e-01; 2.975285e-01; 2.972652e-01; 2.968438e-01; 2.964034e-01; 2.961341e-01; 2.960850e-01; 2.958195e-01; 2.954279e-01; 2.949377e-01; 2.945602e-01; 2.942893e-01; 2.941438e-01; 2.938604e-01; 2.935170e-01; 2.932785e-01
"14";"carmenere";"Etalon1-30";2022-07-08;343.6139510;169.75796; 135.47354;  80.579338; 733.95198; 216.05287;1.6812441; 2.024140463;NA;"30";189;1.2190;"2022";"rouge"; 2.539706e-01; 2.507446e-01; 2.478494e-01; 2.427913e-01; 2.369492e-01; 2.359018e-01; 2.362513e-01; 2.396854e-01; 2.446432e-01; 2.501599e-01; 2.553467e-01; 2.562375e-01; 2.566946e-01; 2.564006e-01; 2.543140e-01; 2.511189e-01; 2.469904e-01; 2.433100e-01; 2.401371e-01; 2.358202e-01; 2.320473e-01; 2.286400e-01; 2.260378e-01; 2.232077e-01; 2.212316e-01; 2.200239e-01; 2.193823e-01; 2.187899e-01; 2.187626e-01; 2.193113e-01; 2.201523e-01; 2.208631e-01; 2.216343e-01; 2.210948e-01; 2.207052e-01; 2.224385e-01; 2.279200e-01; 2.353633e-01; 2.418063e-01; 2.476873e-01; 2.537020e-01; 2.583157e-01; 2.604822e-01; 2.613941e-01; 2.613994e-01; 2.617238e-01; 2.619911e-01; 2.615981e-01; 2.610870e-01; 2.610633e-01; 2.609514e-01; 2.604993e-01; 2.601806e-01; 2.595225e-01; 2.588179e-01; 2.579539e-01; 2.568149e-01; 2.554742e-01; 2.550538e-01; 2.555796e-01; 2.566396e-01; 2.576765e-01; 2.587519e-01; 2.596316e-01; 2.606617e-01; 2.618060e-01; 2.633058e-01; 2.647851e-01; 2.657149e-01; 2.670598e-01; 2.671697e-01; 2.661735e-01; 2.659920e-01; 2.667732e-01; 2.684777e-01; 2.706052e-01; 2.734167e-01; 2.769205e-01; 2.805276e-01; 2.838362e-01; 2.865066e-01; 2.884034e-01; 2.899357e-01; 2.910412e-01; 2.917001e-01; 2.920960e-01; 2.924382e-01; 2.927642e-01; 2.934901e-01; 2.935604e-01; 2.931382e-01; 2.927311e-01; 2.924857e-01; 2.923668e-01; 2.925800e-01; 2.926255e-01; 2.924783e-01; 2.923430e-01; 2.920676e-01; 2.915225e-01; 2.910330e-01; 2.904311e-01; 2.897282e-01; 2.890804e-01; 2.883514e-01; 2.876280e-01; 2.867788e-01; 2.859147e-01; 2.851161e-01; 2.846079e-01; 2.841653e-01; 2.835791e-01; 2.830294e-01; 2.823964e-01; 2.819980e-01; 2.816827e-01; 2.812640e-01; 2.807421e-01; 2.802507e-01; 2.798826e-01; 2.795705e-01; 2.792976e-01; 2.790027e-01; 2.787741e-01; 2.785224e-01
"15";"carmenere";"Etalon5-6";2022-08-04; 26.6483518;104.55331; 228.05161; 192.912741;  54.83550; 420.96435;1.1821490; 0.254878132;"carmenere";"6";216;1.1160;"2022";"rouge"; 2.760690e-01; 2.745560e-01; 2.733850e-01; 2.708970e-01; 2.626840e-01; 2.634430e-01; 2.629830e-01; 2.655480e-01; 2.717330e-01; 2.775100e-01; 2.837240e-01; 2.858090e-01; 2.887180e-01; 2.904500e-01; 2.902430e-01; 2.885250e-01; 2.857740e-01; 2.840620e-01; 2.816890e-01; 2.784470e-01; 2.753860e-01; 2.731430e-01; 2.718020e-01; 2.695010e-01; 2.672540e-01; 2.660650e-01; 2.646980e-01; 2.635450e-01; 2.630700e-01; 2.627340e-01; 2.615430e-01; 2.603930e-01; 2.594660e-01; 2.565740e-01; 2.543930e-01; 2.549360e-01; 2.583550e-01; 2.635150e-01; 2.673890e-01; 2.707400e-01; 2.746310e-01; 2.782100e-01; 2.799580e-01; 2.805900e-01; 2.806650e-01; 2.807150e-01; 2.810510e-01; 2.809220e-01; 2.807510e-01; 2.809680e-01; 2.811450e-01; 2.811360e-01; 2.810580e-01; 2.810280e-01; 2.808080e-01; 2.801960e-01; 2.794590e-01; 2.784450e-01; 2.781580e-01; 2.784510e-01; 2.789330e-01; 2.795630e-01; 2.797820e-01; 2.798180e-01; 2.797930e-01; 2.798220e-01; 2.799650e-01; 2.800660e-01; 2.799860e-01; 2.801200e-01; 2.800260e-01; 2.793380e-01; 2.792590e-01; 2.795300e-01; 2.801300e-01; 2.810350e-01; 2.822130e-01; 2.835770e-01; 2.851680e-01; 2.865450e-01; 2.876590e-01; 2.887700e-01; 2.894740e-01; 2.898170e-01; 2.900280e-01; 2.901890e-01; 2.903900e-01; 2.903930e-01; 2.905590e-01; 2.905820e-01; 2.904120e-01; 2.901660e-01; 2.899430e-01; 2.898910e-01; 2.899860e-01; 2.900690e-01; 2.900930e-01; 2.900210e-01; 2.900090e-01; 2.896590e-01; 2.896200e-01; 2.893700e-01; 2.890450e-01; 2.888430e-01; 2.884360e-01; 2.881060e-01; 2.876300e-01; 2.871890e-01; 2.868050e-01; 2.865450e-01; 2.864580e-01; 2.860980e-01; 2.858970e-01; 2.855490e-01; 2.852640e-01; 2.851420e-01; 2.848700e-01; 2.847130e-01; 2.845090e-01; 2.842940e-01; 2.839990e-01; 2.837280e-01; 2.835470e-01; 2.834210e-01; 2.832350e-01
"16";"carmenere";"Etalon3-6";2022-07-26; 47.1221108;121.28483; 341.54124; 281.075554; 158.94768; 622.61679;1.2151225; 0.388524369;"carmenere";"6";207;1.4560;"2022";"rouge"; 3.255569e-01; 3.288952e-01; 3.421869e-01; 3.295146e-01; 3.053435e-01; 3.120838e-01; 3.187215e-01; 3.311326e-01; 3.523614e-01; 3.828399e-01; 4.169821e-01; 4.285315e-01; 4.399821e-01; 4.455449e-01; 4.416996e-01; 4.270461e-01; 4.113891e-01; 3.960058e-01; 3.797109e-01; 3.666809e-01; 3.538544e-01; 3.428022e-01; 3.321847e-01; 3.225112e-01; 3.146029e-01; 3.073777e-01; 3.028333e-01; 2.991129e-01; 2.955472e-01; 2.934173e-01; 2.903450e-01; 2.866464e-01; 2.816016e-01; 2.711273e-01; 2.624400e-01; 2.625889e-01; 2.685004e-01; 2.795112e-01; 2.856641e-01; 2.922563e-01; 3.042779e-01; 3.152691e-01; 3.212947e-01; 3.221547e-01; 3.214026e-01; 3.216784e-01; 3.219995e-01; 3.203112e-01; 3.193293e-01; 3.195048e-01; 3.195359e-01; 3.191167e-01; 3.188050e-01; 3.181674e-01; 3.164266e-01; 3.141911e-01; 3.112363e-01; 3.070833e-01; 3.054096e-01; 3.061535e-01; 3.076867e-01; 3.084964e-01; 3.084049e-01; 3.072249e-01; 3.056947e-01; 3.043430e-01; 3.034150e-01; 3.018503e-01; 2.991129e-01; 2.974674e-01; 2.939951e-01; 2.878818e-01; 2.845818e-01; 2.840579e-01; 2.847191e-01; 2.859051e-01; 2.873573e-01; 2.890014e-01; 2.907635e-01; 2.925487e-01; 2.939349e-01; 2.952167e-01; 2.962099e-01; 2.970016e-01; 2.978109e-01; 2.980509e-01; 2.983909e-01; 2.990268e-01; 3.000817e-01; 3.001601e-01; 2.996911e-01; 2.994679e-01; 2.995180e-01; 3.000039e-01; 3.011045e-01; 3.021870e-01; 3.028985e-01; 3.034717e-01; 3.040012e-01; 3.041727e-01; 3.043174e-01; 3.042328e-01; 3.040396e-01; 3.037946e-01; 3.034517e-01; 3.028740e-01; 3.023685e-01; 3.015133e-01; 3.009411e-01; 3.007742e-01; 3.005103e-01; 3.002526e-01; 2.997168e-01; 2.992859e-01; 2.990901e-01; 2.989768e-01; 2.987271e-01; 2.984214e-01; 2.979414e-01; 2.975286e-01; 2.971670e-01; 2.968924e-01; 2.966119e-01; 2.962784e-01; 2.959726e-01
"17";"carmenere";"Etalon2-34";2022-07-15;136.3062630;130.22533; 273.36499; 194.094775; 861.75266; 467.45977;1.4084099; 1.046695510;NA;"34";196;0.9060;"2022";"rouge"; 2.970022e-01; 2.986629e-01; 3.042018e-01; 2.909368e-01; 2.674572e-01; 2.697349e-01; 2.718007e-01; 2.780035e-01; 2.926385e-01; 3.189798e-01; 3.471437e-01; 3.551866e-01; 3.697707e-01; 3.830557e-01; 3.818416e-01; 3.720430e-01; 3.605100e-01; 3.489458e-01; 3.375716e-01; 3.269618e-01; 3.160343e-01; 3.069054e-01; 2.979145e-01; 2.898270e-01; 2.836446e-01; 2.778693e-01; 2.725906e-01; 2.691353e-01; 2.661189e-01; 2.636805e-01; 2.603742e-01; 2.556895e-01; 2.502733e-01; 2.405613e-01; 2.333453e-01; 2.339566e-01; 2.400518e-01; 2.507649e-01; 2.576705e-01; 2.638636e-01; 2.742169e-01; 2.843158e-01; 2.904296e-01; 2.924205e-01; 2.922652e-01; 2.929413e-01; 2.935854e-01; 2.922688e-01; 2.916680e-01; 2.921492e-01; 2.929371e-01; 2.935430e-01; 2.937097e-01; 2.933869e-01; 2.923003e-01; 2.906848e-01; 2.880449e-01; 2.842146e-01; 2.829119e-01; 2.836668e-01; 2.852701e-01; 2.857803e-01; 2.855416e-01; 2.841602e-01; 2.825027e-01; 2.809009e-01; 2.801495e-01; 2.788643e-01; 2.761815e-01; 2.749554e-01; 2.725805e-01; 2.688810e-01; 2.673097e-01; 2.676891e-01; 2.687173e-01; 2.700883e-01; 2.720296e-01; 2.742968e-01; 2.768118e-01; 2.793767e-01; 2.814994e-01; 2.832476e-01; 2.844744e-01; 2.854350e-01; 2.860878e-01; 2.863970e-01; 2.865990e-01; 2.871800e-01; 2.880721e-01; 2.883360e-01; 2.876327e-01; 2.872494e-01; 2.871778e-01; 2.875095e-01; 2.887258e-01; 2.899068e-01; 2.907053e-01; 2.914677e-01; 2.918912e-01; 2.921943e-01; 2.924236e-01; 2.922953e-01; 2.919894e-01; 2.916979e-01; 2.911565e-01; 2.906068e-01; 2.898700e-01; 2.888689e-01; 2.881440e-01; 2.877612e-01; 2.874027e-01; 2.869563e-01; 2.864037e-01; 2.857867e-01; 2.855033e-01; 2.854122e-01; 2.850689e-01; 2.846060e-01; 2.840412e-01; 2.835471e-01; 2.832358e-01; 2.829080e-01; 2.826104e-01; 2.823347e-01; 2.820586e-01
"18";"carmenere";"Etalon2-30";2022-07-15;172.7953883;131.83518; 316.86825; 238.627411; 964.91243; 555.49567;1.3278787; 1.310692527;NA;"30";196;1.1410;"2022";"rouge"; 3.077199e-01; 3.118111e-01; 3.190967e-01; 3.046282e-01; 2.800616e-01; 2.815298e-01; 2.844909e-01; 2.924953e-01; 3.079422e-01; 3.341356e-01; 3.667355e-01; 3.769524e-01; 3.942437e-01; 4.117589e-01; 4.118479e-01; 4.003420e-01; 3.898427e-01; 3.795916e-01; 3.678028e-01; 3.567835e-01; 3.461900e-01; 3.353125e-01; 3.259058e-01; 3.177197e-01; 3.101495e-01; 3.035707e-01; 2.981644e-01; 2.940536e-01; 2.900576e-01; 2.861336e-01; 2.812677e-01; 2.756356e-01; 2.682015e-01; 2.557564e-01; 2.461015e-01; 2.458931e-01; 2.510890e-01; 2.603153e-01; 2.649971e-01; 2.693535e-01; 2.788934e-01; 2.894717e-01; 2.961516e-01; 2.978653e-01; 2.975167e-01; 2.981194e-01; 2.986871e-01; 2.976460e-01; 2.973714e-01; 2.980165e-01; 2.992380e-01; 3.000250e-01; 3.006164e-01; 3.006016e-01; 2.996587e-01; 2.980834e-01; 2.955344e-01; 2.916268e-01; 2.903255e-01; 2.911132e-01; 2.921789e-01; 2.922549e-01; 2.915972e-01; 2.894094e-01; 2.869350e-01; 2.846596e-01; 2.827234e-01; 2.803050e-01; 2.769006e-01; 2.751815e-01; 2.723328e-01; 2.682336e-01; 2.664154e-01; 2.665795e-01; 2.674743e-01; 2.688366e-01; 2.709600e-01; 2.735706e-01; 2.767426e-01; 2.798153e-01; 2.824756e-01; 2.844128e-01; 2.859868e-01; 2.868819e-01; 2.876191e-01; 2.881038e-01; 2.884385e-01; 2.889475e-01; 2.899922e-01; 2.900510e-01; 2.894443e-01; 2.890143e-01; 2.889810e-01; 2.892423e-01; 2.902897e-01; 2.914069e-01; 2.922271e-01; 2.928139e-01; 2.933087e-01; 2.934095e-01; 2.935207e-01; 2.933231e-01; 2.929541e-01; 2.924979e-01; 2.918954e-01; 2.912596e-01; 2.903956e-01; 2.893816e-01; 2.885830e-01; 2.881356e-01; 2.876969e-01; 2.872407e-01; 2.865665e-01; 2.860597e-01; 2.857186e-01; 2.855338e-01; 2.852098e-01; 2.847362e-01; 2.841608e-01; 2.836736e-01; 2.833371e-01; 2.830185e-01; 2.827675e-01; 2.824446e-01; 2.820821e-01
"19";"carmenere";"Etalon7-41";2022-08-18; 11.5962574;168.50982; 246.49839; 254.007594;  71.46035; 500.50598;0.9704371; 0.068816508;"carmenere";"41";230;1.0470;"2022";"rouge"; 2.514230e-01; 2.483500e-01; 2.450060e-01; 2.440090e-01; 2.390160e-01; 2.407010e-01; 2.400060e-01; 2.420160e-01; 2.443810e-01; 2.461530e-01; 2.468210e-01; 2.480640e-01; 2.480390e-01; 2.480140e-01; 2.473360e-01; 2.456460e-01; 2.445490e-01; 2.428920e-01; 2.405280e-01; 2.388740e-01; 2.378660e-01; 2.360390e-01; 2.346550e-01; 2.335030e-01; 2.325900e-01; 2.325040e-01; 2.321010e-01; 2.321270e-01; 2.321580e-01; 2.325010e-01; 2.334500e-01; 2.340090e-01; 2.350300e-01; 2.360820e-01; 2.374030e-01; 2.392810e-01; 2.424880e-01; 2.475530e-01; 2.524640e-01; 2.561950e-01; 2.586290e-01; 2.599450e-01; 2.608850e-01; 2.613190e-01; 2.615300e-01; 2.618710e-01; 2.621250e-01; 2.621530e-01; 2.619010e-01; 2.618390e-01; 2.617840e-01; 2.614010e-01; 2.613120e-01; 2.612310e-01; 2.609820e-01; 2.606340e-01; 2.604610e-01; 2.604230e-01; 2.604450e-01; 2.607070e-01; 2.610450e-01; 2.615870e-01; 2.624830e-01; 2.632330e-01; 2.641690e-01; 2.653490e-01; 2.665820e-01; 2.679610e-01; 2.690760e-01; 2.701650e-01; 2.711820e-01; 2.719160e-01; 2.725610e-01; 2.732740e-01; 2.740590e-01; 2.746850e-01; 2.754580e-01; 2.763110e-01; 2.773360e-01; 2.781710e-01; 2.788900e-01; 2.792640e-01; 2.795460e-01; 2.797740e-01; 2.797830e-01; 2.797280e-01; 2.795790e-01; 2.795640e-01; 2.794250e-01; 2.793920e-01; 2.792510e-01; 2.792090e-01; 2.790900e-01; 2.788540e-01; 2.786120e-01; 2.784700e-01; 2.783140e-01; 2.781310e-01; 2.779530e-01; 2.776380e-01; 2.775410e-01; 2.772740e-01; 2.770420e-01; 2.769180e-01; 2.765690e-01; 2.763930e-01; 2.761450e-01; 2.760870e-01; 2.756900e-01; 2.756330e-01; 2.755640e-01; 2.752890e-01; 2.752440e-01; 2.749720e-01; 2.748250e-01; 2.747730e-01; 2.745660e-01; 2.743790e-01; 2.742010e-01; 2.740450e-01; 2.739480e-01; 2.738350e-01; 2.738160e-01; 2.738650e-01; 2.738000e-01
"20";"carmenere";"Etalon8-53";2022-08-24; 24.7059456;103.03672; 619.44814; 541.110121;  36.19374;1160.55826;1.1447728; 0.239778057;NA;"53";236;1.3200;"2022";"rouge"; 2.636310e-01; 2.644410e-01; 2.614680e-01; 2.610140e-01; 2.574820e-01; 2.593010e-01; 2.606860e-01; 2.656040e-01; 2.732140e-01; 2.861590e-01; 2.982860e-01; 3.063520e-01; 3.138410e-01; 3.184470e-01; 3.170250e-01; 3.110320e-01; 3.040750e-01; 2.955320e-01; 2.869240e-01; 2.806230e-01; 2.729190e-01; 2.659600e-01; 2.604180e-01; 2.542320e-01; 2.503750e-01; 2.469990e-01; 2.458260e-01; 2.452160e-01; 2.446760e-01; 2.458470e-01; 2.467450e-01; 2.478620e-01; 2.486180e-01; 2.477350e-01; 2.472410e-01; 2.484440e-01; 2.520730e-01; 2.575310e-01; 2.613820e-01; 2.650470e-01; 2.716980e-01; 2.790600e-01; 2.836410e-01; 2.858540e-01; 2.859780e-01; 2.868490e-01; 2.876360e-01; 2.871350e-01; 2.871250e-01; 2.878220e-01; 2.889690e-01; 2.898130e-01; 2.901040e-01; 2.899700e-01; 2.893160e-01; 2.881750e-01; 2.861310e-01; 2.830020e-01; 2.820440e-01; 2.830300e-01; 2.842700e-01; 2.844100e-01; 2.839940e-01; 2.827010e-01; 2.808850e-01; 2.791650e-01; 2.779720e-01; 2.763530e-01; 2.739710e-01; 2.727980e-01; 2.713760e-01; 2.693530e-01; 2.682520e-01; 2.682230e-01; 2.686630e-01; 2.693040e-01; 2.699440e-01; 2.709180e-01; 2.721020e-01; 2.731270e-01; 2.739100e-01; 2.745320e-01; 2.750100e-01; 2.750940e-01; 2.751680e-01; 2.750690e-01; 2.749880e-01; 2.750480e-01; 2.752100e-01; 2.751440e-01; 2.748140e-01; 2.748430e-01; 2.747650e-01; 2.750690e-01; 2.756840e-01; 2.765700e-01; 2.773100e-01; 2.782020e-01; 2.786300e-01; 2.790690e-01; 2.794200e-01; 2.795910e-01; 2.796270e-01; 2.797480e-01; 2.795530e-01; 2.792920e-01; 2.789300e-01; 2.784240e-01; 2.781280e-01; 2.780370e-01; 2.779430e-01; 2.777500e-01; 2.774800e-01; 2.773540e-01; 2.773680e-01; 2.774350e-01; 2.772420e-01; 2.770140e-01; 2.767520e-01; 2.766420e-01; 2.764980e-01; 2.763000e-01; 2.761530e-01; 2.760190e-01; 2.759640e-01
"21";"carmenere";"Etalon5-3";2022-08-04; 38.9234223;154.52188; 341.97915; 292.274813;  81.00121; 634.25396;1.1700603; 0.251895860;"carmenere";"3";216;1.2680;"2022";"rouge"; 2.678950e-01; 2.655770e-01; 2.670920e-01; 2.639710e-01; 2.586070e-01; 2.575420e-01; 2.589780e-01; 2.617880e-01; 2.664250e-01; 2.723830e-01; 2.774930e-01; 2.787280e-01; 2.810690e-01; 2.819890e-01; 2.814720e-01; 2.794240e-01; 2.772910e-01; 2.757250e-01; 2.730940e-01; 2.690470e-01; 2.661540e-01; 2.639620e-01; 2.621420e-01; 2.602630e-01; 2.581890e-01; 2.568900e-01; 2.558720e-01; 2.554170e-01; 2.548840e-01; 2.548900e-01; 2.544650e-01; 2.541130e-01; 2.535480e-01; 2.513980e-01; 2.501070e-01; 2.510810e-01; 2.544410e-01; 2.591470e-01; 2.629730e-01; 2.661840e-01; 2.700100e-01; 2.731100e-01; 2.750130e-01; 2.755450e-01; 2.755410e-01; 2.759530e-01; 2.762380e-01; 2.759790e-01; 2.757720e-01; 2.757860e-01; 2.760360e-01; 2.759790e-01; 2.756910e-01; 2.757380e-01; 2.755730e-01; 2.748760e-01; 2.741660e-01; 2.733110e-01; 2.729230e-01; 2.732270e-01; 2.739610e-01; 2.744680e-01; 2.746660e-01; 2.747240e-01; 2.747600e-01; 2.748030e-01; 2.749990e-01; 2.752860e-01; 2.752830e-01; 2.755050e-01; 2.754230e-01; 2.748990e-01; 2.748210e-01; 2.751000e-01; 2.758310e-01; 2.767680e-01; 2.781050e-01; 2.798160e-01; 2.816170e-01; 2.833630e-01; 2.847930e-01; 2.858660e-01; 2.866430e-01; 2.871560e-01; 2.873760e-01; 2.875280e-01; 2.877380e-01; 2.877100e-01; 2.879530e-01; 2.878980e-01; 2.875930e-01; 2.874950e-01; 2.872590e-01; 2.870290e-01; 2.870570e-01; 2.870900e-01; 2.871070e-01; 2.869550e-01; 2.868830e-01; 2.865270e-01; 2.863740e-01; 2.860240e-01; 2.855940e-01; 2.852660e-01; 2.849430e-01; 2.844500e-01; 2.840710e-01; 2.835130e-01; 2.831210e-01; 2.827600e-01; 2.825910e-01; 2.821810e-01; 2.818460e-01; 2.814630e-01; 2.811640e-01; 2.810040e-01; 2.807440e-01; 2.804220e-01; 2.801640e-01; 2.799390e-01; 2.796190e-01; 2.793440e-01; 2.790810e-01; 2.788170e-01; 2.784570e-01
"22";"carmenere";"Etalon8-54";2022-08-24; 24.4801669; 91.25695; 441.61024; 403.855381;  33.91715; 845.46562;1.0934861; 0.268255374;NA;"54";236;1.0320;"2022";"rouge"; 2.582290e-01; 2.572320e-01; 2.552860e-01; 2.553730e-01; 2.537150e-01; 2.538830e-01; 2.549690e-01; 2.591270e-01; 2.665330e-01; 2.773220e-01; 2.911870e-01; 2.968380e-01; 3.046350e-01; 3.076960e-01; 3.068130e-01; 3.010540e-01; 2.931760e-01; 2.856820e-01; 2.777590e-01; 2.705900e-01; 2.639380e-01; 2.569010e-01; 2.509250e-01; 2.462570e-01; 2.429240e-01; 2.396940e-01; 2.389730e-01; 2.393310e-01; 2.394760e-01; 2.407560e-01; 2.422950e-01; 2.436120e-01; 2.445330e-01; 2.443130e-01; 2.442090e-01; 2.454590e-01; 2.488480e-01; 2.540340e-01; 2.580620e-01; 2.621110e-01; 2.685450e-01; 2.759340e-01; 2.810980e-01; 2.828400e-01; 2.829290e-01; 2.837440e-01; 2.844850e-01; 2.842520e-01; 2.842020e-01; 2.846230e-01; 2.856960e-01; 2.861840e-01; 2.864230e-01; 2.864160e-01; 2.856610e-01; 2.846440e-01; 2.826760e-01; 2.796090e-01; 2.787760e-01; 2.797590e-01; 2.809580e-01; 2.812720e-01; 2.811310e-01; 2.799460e-01; 2.783200e-01; 2.770250e-01; 2.762300e-01; 2.750400e-01; 2.730990e-01; 2.724160e-01; 2.712420e-01; 2.694910e-01; 2.688890e-01; 2.690270e-01; 2.697970e-01; 2.708770e-01; 2.720590e-01; 2.735240e-01; 2.751010e-01; 2.764110e-01; 2.775480e-01; 2.782170e-01; 2.787680e-01; 2.789360e-01; 2.789130e-01; 2.789350e-01; 2.788530e-01; 2.788230e-01; 2.790300e-01; 2.790120e-01; 2.787520e-01; 2.786300e-01; 2.786820e-01; 2.788130e-01; 2.793760e-01; 2.802940e-01; 2.809890e-01; 2.817740e-01; 2.822820e-01; 2.826750e-01; 2.829240e-01; 2.829850e-01; 2.830410e-01; 2.831230e-01; 2.829440e-01; 2.825190e-01; 2.822430e-01; 2.816190e-01; 2.811190e-01; 2.809680e-01; 2.810120e-01; 2.807210e-01; 2.804130e-01; 2.801730e-01; 2.801770e-01; 2.802270e-01; 2.799540e-01; 2.796970e-01; 2.794360e-01; 2.792460e-01; 2.790840e-01; 2.788820e-01; 2.787010e-01; 2.785930e-01; 2.784330e-01
"23";"carmenere";"Etalon8-56";2022-08-24; 20.0599685; 89.52206; 472.38520; 417.246006;  27.59775; 889.63120;1.1321503; 0.224078491;NA;"56";236;1.2130;"2022";"rouge"; 2.506150e-01; 2.520840e-01; 2.484480e-01; 2.515840e-01; 2.516320e-01; 2.528960e-01; 2.560180e-01; 2.598290e-01; 2.659030e-01; 2.757030e-01; 2.880670e-01; 2.949100e-01; 2.991400e-01; 3.030300e-01; 3.017010e-01; 2.952370e-01; 2.874890e-01; 2.795170e-01; 2.716440e-01; 2.644490e-01; 2.573490e-01; 2.509470e-01; 2.457260e-01; 2.403580e-01; 2.377440e-01; 2.352870e-01; 2.347370e-01; 2.350080e-01; 2.356180e-01; 2.375200e-01; 2.401720e-01; 2.426470e-01; 2.447610e-01; 2.460700e-01; 2.465620e-01; 2.480210e-01; 2.513280e-01; 2.559680e-01; 2.595660e-01; 2.632090e-01; 2.689600e-01; 2.758520e-01; 2.809650e-01; 2.822540e-01; 2.824960e-01; 2.834890e-01; 2.840740e-01; 2.838660e-01; 2.839070e-01; 2.844700e-01; 2.853700e-01; 2.859260e-01; 2.862850e-01; 2.863440e-01; 2.856140e-01; 2.844590e-01; 2.826890e-01; 2.798110e-01; 2.790100e-01; 2.800510e-01; 2.810280e-01; 2.812870e-01; 2.810760e-01; 2.798060e-01; 2.781580e-01; 2.765890e-01; 2.753420e-01; 2.737660e-01; 2.715120e-01; 2.704160e-01; 2.688540e-01; 2.667760e-01; 2.658770e-01; 2.656610e-01; 2.661160e-01; 2.667670e-01; 2.676490e-01; 2.686330e-01; 2.698550e-01; 2.712290e-01; 2.721510e-01; 2.730400e-01; 2.737920e-01; 2.738400e-01; 2.740870e-01; 2.738770e-01; 2.738190e-01; 2.738460e-01; 2.741520e-01; 2.740040e-01; 2.737700e-01; 2.735940e-01; 2.735890e-01; 2.737280e-01; 2.743400e-01; 2.751830e-01; 2.758070e-01; 2.765840e-01; 2.770950e-01; 2.774230e-01; 2.776600e-01; 2.777490e-01; 2.779190e-01; 2.778800e-01; 2.776570e-01; 2.774210e-01; 2.770740e-01; 2.764760e-01; 2.761340e-01; 2.759760e-01; 2.760160e-01; 2.758350e-01; 2.754960e-01; 2.753000e-01; 2.753420e-01; 2.754010e-01; 2.751880e-01; 2.750180e-01; 2.747020e-01; 2.745770e-01; 2.744980e-01; 2.743340e-01; 2.741620e-01; 2.740040e-01; 2.738690e-01
"24";"carmenere";"Etalon7-42";2022-08-18; 17.7257285;155.94940; 286.51102; 257.916290;  75.10034; 544.42731;1.1108683; 0.113663334;"carmenere";"42";230;1.1390;"2022";"rouge"; 2.504860e-01; 2.486500e-01; 2.452490e-01; 2.442330e-01; 2.402130e-01; 2.400680e-01; 2.416260e-01; 2.426320e-01; 2.452960e-01; 2.463970e-01; 2.477530e-01; 2.470730e-01; 2.477570e-01; 2.481010e-01; 2.477810e-01; 2.464060e-01; 2.452000e-01; 2.442170e-01; 2.423250e-01; 2.404530e-01; 2.396820e-01; 2.385950e-01; 2.377530e-01; 2.368950e-01; 2.363450e-01; 2.359280e-01; 2.354390e-01; 2.357120e-01; 2.359270e-01; 2.362580e-01; 2.370800e-01; 2.372770e-01; 2.374600e-01; 2.382400e-01; 2.393370e-01; 2.407520e-01; 2.432730e-01; 2.470930e-01; 2.509270e-01; 2.537110e-01; 2.555520e-01; 2.566480e-01; 2.575620e-01; 2.581570e-01; 2.582120e-01; 2.583180e-01; 2.584890e-01; 2.584570e-01; 2.581930e-01; 2.582360e-01; 2.583500e-01; 2.580950e-01; 2.579920e-01; 2.580830e-01; 2.580340e-01; 2.576660e-01; 2.575210e-01; 2.574920e-01; 2.575280e-01; 2.577430e-01; 2.580860e-01; 2.587050e-01; 2.592220e-01; 2.597080e-01; 2.604500e-01; 2.613770e-01; 2.623010e-01; 2.633370e-01; 2.641430e-01; 2.649010e-01; 2.658330e-01; 2.664900e-01; 2.672360e-01; 2.680190e-01; 2.685400e-01; 2.693730e-01; 2.705670e-01; 2.719750e-01; 2.736480e-01; 2.751320e-01; 2.764440e-01; 2.772410e-01; 2.778510e-01; 2.783100e-01; 2.784650e-01; 2.784350e-01; 2.784690e-01; 2.785720e-01; 2.784600e-01; 2.783240e-01; 2.779790e-01; 2.780220e-01; 2.777350e-01; 2.773830e-01; 2.770990e-01; 2.765950e-01; 2.763390e-01; 2.759330e-01; 2.756040e-01; 2.751420e-01; 2.748950e-01; 2.745000e-01; 2.741300e-01; 2.738120e-01; 2.733380e-01; 2.730340e-01; 2.725400e-01; 2.723120e-01; 2.720010e-01; 2.717140e-01; 2.715820e-01; 2.712720e-01; 2.710440e-01; 2.707550e-01; 2.705730e-01; 2.705850e-01; 2.701730e-01; 2.700010e-01; 2.698090e-01; 2.696290e-01; 2.695000e-01; 2.693750e-01; 2.693500e-01; 2.692710e-01; 2.691440e-01
"25";"carmenere";"Etalon3-2";2022-07-26; 45.6469129;100.56396; 221.24709; 191.523024; 137.36346; 412.77011;1.1551984; 0.453909266;"carmenere";"2";207;0.9720;"2022";"rouge"; 3.457002e-01; 3.556247e-01; 3.722830e-01; 3.576387e-01; 3.251461e-01; 3.334001e-01; 3.398035e-01; 3.536529e-01; 3.766247e-01; 4.137360e-01; 4.534120e-01; 4.694183e-01; 4.887431e-01; 5.018647e-01; 4.973088e-01; 4.813095e-01; 4.648393e-01; 4.479445e-01; 4.293611e-01; 4.145632e-01; 4.003916e-01; 3.862775e-01; 3.745778e-01; 3.643220e-01; 3.532028e-01; 3.444805e-01; 3.376617e-01; 3.324051e-01; 3.277712e-01; 3.229815e-01; 3.170846e-01; 3.114552e-01; 3.035651e-01; 2.885128e-01; 2.758949e-01; 2.754401e-01; 2.812614e-01; 2.924888e-01; 2.975625e-01; 3.024307e-01; 3.134940e-01; 3.249318e-01; 3.312253e-01; 3.320242e-01; 3.312251e-01; 3.316788e-01; 3.319553e-01; 3.300584e-01; 3.292956e-01; 3.297499e-01; 3.304487e-01; 3.306924e-01; 3.305332e-01; 3.297794e-01; 3.285881e-01; 3.266136e-01; 3.234705e-01; 3.190650e-01; 3.172687e-01; 3.179822e-01; 3.193762e-01; 3.196376e-01; 3.191867e-01; 3.171619e-01; 3.147034e-01; 3.121964e-01; 3.099577e-01; 3.070659e-01; 3.030502e-01; 3.004360e-01; 2.960000e-01; 2.892450e-01; 2.852865e-01; 2.844706e-01; 2.847626e-01; 2.854003e-01; 2.860877e-01; 2.870903e-01; 2.884752e-01; 2.897675e-01; 2.908644e-01; 2.917395e-01; 2.926118e-01; 2.934204e-01; 2.939757e-01; 2.943757e-01; 2.946258e-01; 2.953513e-01; 2.964339e-01; 2.966458e-01; 2.961389e-01; 2.960272e-01; 2.960605e-01; 2.966194e-01; 2.979010e-01; 2.990464e-01; 2.998703e-01; 3.005394e-01; 3.011220e-01; 3.014644e-01; 3.017268e-01; 3.017552e-01; 3.016170e-01; 3.014591e-01; 3.011866e-01; 3.008313e-01; 3.005292e-01; 2.997063e-01; 2.993383e-01; 2.991439e-01; 2.989956e-01; 2.987842e-01; 2.984359e-01; 2.980907e-01; 2.979410e-01; 2.978908e-01; 2.977284e-01; 2.973985e-01; 2.970428e-01; 2.966073e-01; 2.963096e-01; 2.961732e-01; 2.959674e-01; 2.956277e-01; 2.954434e-01
"26";"carmenere";"Etalon1-36";2022-07-08;332.8497661;184.10056; 127.22595;  75.125324; 691.56652; 202.35127;1.6935161; 1.807977973;NA;"36";189;0.8610;"2022";"rouge"; 2.524503e-01; 2.491378e-01; 2.453881e-01; 2.420264e-01; 2.389861e-01; 2.388535e-01; 2.398128e-01; 2.440143e-01; 2.511838e-01; 2.563213e-01; 2.604760e-01; 2.609882e-01; 2.616822e-01; 2.610617e-01; 2.587707e-01; 2.555582e-01; 2.518446e-01; 2.480158e-01; 2.437045e-01; 2.394626e-01; 2.353404e-01; 2.316075e-01; 2.290277e-01; 2.265887e-01; 2.243968e-01; 2.234565e-01; 2.227814e-01; 2.225062e-01; 2.229874e-01; 2.240664e-01; 2.255374e-01; 2.270584e-01; 2.283044e-01; 2.290325e-01; 2.297159e-01; 2.322545e-01; 2.378728e-01; 2.456821e-01; 2.525852e-01; 2.585281e-01; 2.643957e-01; 2.686527e-01; 2.708648e-01; 2.715772e-01; 2.715990e-01; 2.719695e-01; 2.722683e-01; 2.720129e-01; 2.715142e-01; 2.714613e-01; 2.714497e-01; 2.711568e-01; 2.708203e-01; 2.701941e-01; 2.694061e-01; 2.687534e-01; 2.677569e-01; 2.662354e-01; 2.658446e-01; 2.663795e-01; 2.675963e-01; 2.685567e-01; 2.695158e-01; 2.703211e-01; 2.710655e-01; 2.719385e-01; 2.731878e-01; 2.742065e-01; 2.745225e-01; 2.752630e-01; 2.749337e-01; 2.733700e-01; 2.725942e-01; 2.729432e-01; 2.740827e-01; 2.755489e-01; 2.774671e-01; 2.798870e-01; 2.825229e-01; 2.851020e-01; 2.872609e-01; 2.888941e-01; 2.903112e-01; 2.914122e-01; 2.919140e-01; 2.924266e-01; 2.927097e-01; 2.930743e-01; 2.938224e-01; 2.938633e-01; 2.934948e-01; 2.930776e-01; 2.930155e-01; 2.929487e-01; 2.932094e-01; 2.933602e-01; 2.933105e-01; 2.933290e-01; 2.930955e-01; 2.926967e-01; 2.923027e-01; 2.919303e-01; 2.914123e-01; 2.909422e-01; 2.903300e-01; 2.896346e-01; 2.890565e-01; 2.883034e-01; 2.876692e-01; 2.872750e-01; 2.869922e-01; 2.865487e-01; 2.860408e-01; 2.855659e-01; 2.852931e-01; 2.851216e-01; 2.847308e-01; 2.843476e-01; 2.839549e-01; 2.836233e-01; 2.833762e-01; 2.831310e-01; 2.829583e-01; 2.828294e-01; 2.826971e-01
"27";"carmenere";"Etalon4-39";2022-07-29; 42.3776352; 74.78086; 174.83967; 134.494127;  99.22353; 309.33379;1.2999799; 0.566690916;"carmenere";"39";210;1.7180;"2022";"rouge"; 2.597156e-01; 2.574767e-01; 2.578753e-01; 2.549616e-01; 2.500921e-01; 2.502494e-01; 2.503513e-01; 2.531283e-01; 2.582712e-01; 2.630232e-01; 2.690703e-01; 2.707879e-01; 2.738694e-01; 2.777087e-01; 2.777241e-01; 2.745642e-01; 2.703930e-01; 2.678288e-01; 2.646139e-01; 2.608542e-01; 2.569002e-01; 2.534641e-01; 2.505964e-01; 2.485200e-01; 2.466901e-01; 2.450990e-01; 2.440644e-01; 2.436014e-01; 2.444244e-01; 2.447740e-01; 2.445563e-01; 2.449169e-01; 2.452427e-01; 2.445927e-01; 2.445002e-01; 2.459047e-01; 2.493588e-01; 2.538747e-01; 2.575066e-01; 2.609671e-01; 2.641942e-01; 2.673738e-01; 2.699609e-01; 2.706437e-01; 2.703898e-01; 2.705487e-01; 2.710645e-01; 2.709860e-01; 2.706497e-01; 2.707158e-01; 2.708786e-01; 2.709770e-01; 2.712376e-01; 2.711416e-01; 2.709226e-01; 2.706159e-01; 2.696709e-01; 2.686324e-01; 2.683852e-01; 2.689255e-01; 2.696989e-01; 2.700393e-01; 2.702852e-01; 2.703066e-01; 2.701696e-01; 2.701550e-01; 2.704828e-01; 2.705631e-01; 2.706853e-01; 2.712044e-01; 2.713338e-01; 2.712602e-01; 2.713630e-01; 2.718472e-01; 2.724579e-01; 2.733672e-01; 2.746216e-01; 2.762550e-01; 2.780236e-01; 2.796338e-01; 2.809410e-01; 2.820213e-01; 2.828211e-01; 2.834645e-01; 2.835756e-01; 2.837624e-01; 2.838858e-01; 2.839106e-01; 2.840037e-01; 2.838717e-01; 2.838181e-01; 2.836086e-01; 2.833638e-01; 2.829397e-01; 2.827825e-01; 2.823108e-01; 2.820839e-01; 2.818115e-01; 2.815431e-01; 2.811078e-01; 2.807386e-01; 2.804940e-01; 2.801228e-01; 2.797284e-01; 2.794160e-01; 2.789548e-01; 2.787286e-01; 2.783902e-01; 2.780666e-01; 2.779165e-01; 2.777156e-01; 2.774171e-01; 2.771026e-01; 2.769031e-01; 2.766691e-01; 2.764460e-01; 2.761658e-01; 2.759563e-01; 2.758473e-01; 2.755911e-01; 2.755258e-01; 2.753763e-01; 2.751502e-01; 2.749814e-01; 2.746884e-01
"28";"carmenere";"Etalon3-5";2022-07-26; 43.7091892;106.90649; 273.33596; 233.748844; 167.29155; 507.08481;1.1693575; 0.408854419;"carmenere";"5";207;0.9520;"2022";"rouge"; 3.324990e-01; 3.347396e-01; 3.424431e-01; 3.325474e-01; 3.083085e-01; 3.112021e-01; 3.194152e-01; 3.327968e-01; 3.515129e-01; 3.823901e-01; 4.170229e-01; 4.283974e-01; 4.430073e-01; 4.475263e-01; 4.442191e-01; 4.282398e-01; 4.120671e-01; 3.971969e-01; 3.815311e-01; 3.680715e-01; 3.553282e-01; 3.439816e-01; 3.333112e-01; 3.244692e-01; 3.161842e-01; 3.090073e-01; 3.045943e-01; 3.006476e-01; 2.977943e-01; 2.955462e-01; 2.923177e-01; 2.889236e-01; 2.844928e-01; 2.746716e-01; 2.657565e-01; 2.661923e-01; 2.726551e-01; 2.839939e-01; 2.908340e-01; 2.974754e-01; 3.091664e-01; 3.204798e-01; 3.265593e-01; 3.275236e-01; 3.271029e-01; 3.275412e-01; 3.278380e-01; 3.261598e-01; 3.252907e-01; 3.254461e-01; 3.257838e-01; 3.256762e-01; 3.253459e-01; 3.246996e-01; 3.231213e-01; 3.211412e-01; 3.182730e-01; 3.138327e-01; 3.124034e-01; 3.131470e-01; 3.144581e-01; 3.154555e-01; 3.154871e-01; 3.143550e-01; 3.126616e-01; 3.110096e-01; 3.099249e-01; 3.080857e-01; 3.050298e-01; 3.030961e-01; 2.993185e-01; 2.929766e-01; 2.892574e-01; 2.887900e-01; 2.893488e-01; 2.902784e-01; 2.915019e-01; 2.928616e-01; 2.943385e-01; 2.958465e-01; 2.970185e-01; 2.980654e-01; 2.988770e-01; 2.998378e-01; 3.004295e-01; 3.007388e-01; 3.011718e-01; 3.017573e-01; 3.028581e-01; 3.032738e-01; 3.027280e-01; 3.025907e-01; 3.027171e-01; 3.033658e-01; 3.045093e-01; 3.058313e-01; 3.067012e-01; 3.074314e-01; 3.081054e-01; 3.084179e-01; 3.087043e-01; 3.087423e-01; 3.086756e-01; 3.085572e-01; 3.082707e-01; 3.078022e-01; 3.073625e-01; 3.066665e-01; 3.061478e-01; 3.060516e-01; 3.058477e-01; 3.056614e-01; 3.053044e-01; 3.049250e-01; 3.047873e-01; 3.048133e-01; 3.046113e-01; 3.043128e-01; 3.038947e-01; 3.035173e-01; 3.032565e-01; 3.030646e-01; 3.028491e-01; 3.025786e-01; 3.024099e-01
"29";"carmenere";"Etalon4-37";2022-07-29; 74.1072360;135.08097; 318.96066; 255.932244; 132.39424; 574.89290;1.2462699; 0.548613444;"carmenere";"37";210;1.9010;"2022";"rouge"; 2.454651e-01; 2.455098e-01; 2.450816e-01; 2.427432e-01; 2.404676e-01; 2.411525e-01; 2.398914e-01; 2.426895e-01; 2.474407e-01; 2.512571e-01; 2.565532e-01; 2.578797e-01; 2.611692e-01; 2.641910e-01; 2.639032e-01; 2.612793e-01; 2.574865e-01; 2.548082e-01; 2.521588e-01; 2.487802e-01; 2.448486e-01; 2.413763e-01; 2.389772e-01; 2.367892e-01; 2.352290e-01; 2.336917e-01; 2.325655e-01; 2.319744e-01; 2.323707e-01; 2.326875e-01; 2.331845e-01; 2.338556e-01; 2.345552e-01; 2.340977e-01; 2.341073e-01; 2.353931e-01; 2.376717e-01; 2.414052e-01; 2.446448e-01; 2.475271e-01; 2.507133e-01; 2.539007e-01; 2.562152e-01; 2.565738e-01; 2.564336e-01; 2.566044e-01; 2.569060e-01; 2.568544e-01; 2.564345e-01; 2.565331e-01; 2.566775e-01; 2.566251e-01; 2.568334e-01; 2.566749e-01; 2.562254e-01; 2.557901e-01; 2.549033e-01; 2.538387e-01; 2.536206e-01; 2.540537e-01; 2.548041e-01; 2.549960e-01; 2.550460e-01; 2.551321e-01; 2.550195e-01; 2.550366e-01; 2.555006e-01; 2.555909e-01; 2.558088e-01; 2.565031e-01; 2.568809e-01; 2.570030e-01; 2.573250e-01; 2.581239e-01; 2.589353e-01; 2.602981e-01; 2.622626e-01; 2.648202e-01; 2.676650e-01; 2.706464e-01; 2.730075e-01; 2.747449e-01; 2.760711e-01; 2.769939e-01; 2.774588e-01; 2.777443e-01; 2.780460e-01; 2.779937e-01; 2.781768e-01; 2.779624e-01; 2.777708e-01; 2.774130e-01; 2.768267e-01; 2.764390e-01; 2.759346e-01; 2.752269e-01; 2.746083e-01; 2.741324e-01; 2.734383e-01; 2.726509e-01; 2.721609e-01; 2.714571e-01; 2.708725e-01; 2.703071e-01; 2.696069e-01; 2.690065e-01; 2.684937e-01; 2.679540e-01; 2.673678e-01; 2.669730e-01; 2.665635e-01; 2.661473e-01; 2.656476e-01; 2.652146e-01; 2.648638e-01; 2.645036e-01; 2.640695e-01; 2.637234e-01; 2.634164e-01; 2.632111e-01; 2.630218e-01; 2.627536e-01; 2.625428e-01; 2.622581e-01; 2.619503e-01
"30";"carmenere";"Etalon8-49";2022-08-24;  9.7577884;199.93687; 285.27974; 253.384180;  74.37309; 538.66392;1.1258783; 0.048804347;"fripée";"49";236;0.9140;"2022";"rouge"; 2.637250e-01; 2.630730e-01; 2.615950e-01; 2.565190e-01; 2.469850e-01; 2.491360e-01; 2.488160e-01; 2.559270e-01; 2.634250e-01; 2.773000e-01; 2.932680e-01; 3.000280e-01; 3.065020e-01; 3.142660e-01; 3.138210e-01; 3.067410e-01; 2.998940e-01; 2.916060e-01; 2.830190e-01; 2.754840e-01; 2.676970e-01; 2.602480e-01; 2.532520e-01; 2.480840e-01; 2.435890e-01; 2.394780e-01; 2.378500e-01; 2.370810e-01; 2.362460e-01; 2.363200e-01; 2.366020e-01; 2.361240e-01; 2.351840e-01; 2.323470e-01; 2.306420e-01; 2.319500e-01; 2.368330e-01; 2.440990e-01; 2.500750e-01; 2.553960e-01; 2.628040e-01; 2.702490e-01; 2.754150e-01; 2.772030e-01; 2.771030e-01; 2.777150e-01; 2.785410e-01; 2.780240e-01; 2.777010e-01; 2.784590e-01; 2.792270e-01; 2.796750e-01; 2.799800e-01; 2.799250e-01; 2.792520e-01; 2.778710e-01; 2.758000e-01; 2.726120e-01; 2.716260e-01; 2.727170e-01; 2.743610e-01; 2.749370e-01; 2.748810e-01; 2.742700e-01; 2.730130e-01; 2.719790e-01; 2.717000e-01; 2.711270e-01; 2.696990e-01; 2.695270e-01; 2.688160e-01; 2.674350e-01; 2.671620e-01; 2.676000e-01; 2.686030e-01; 2.700710e-01; 2.717390e-01; 2.739210e-01; 2.761080e-01; 2.780210e-01; 2.792730e-01; 2.802450e-01; 2.810780e-01; 2.810910e-01; 2.811630e-01; 2.810630e-01; 2.810640e-01; 2.810630e-01; 2.812940e-01; 2.811650e-01; 2.808460e-01; 2.806130e-01; 2.805600e-01; 2.807220e-01; 2.812040e-01; 2.820400e-01; 2.825780e-01; 2.832120e-01; 2.836330e-01; 2.838810e-01; 2.839920e-01; 2.839760e-01; 2.838950e-01; 2.837840e-01; 2.834140e-01; 2.828620e-01; 2.823460e-01; 2.816200e-01; 2.811640e-01; 2.808390e-01; 2.807150e-01; 2.803200e-01; 2.799010e-01; 2.795570e-01; 2.795080e-01; 2.794700e-01; 2.791890e-01; 2.789050e-01; 2.786240e-01; 2.783000e-01; 2.781670e-01; 2.779230e-01; 2.777150e-01; 2.776450e-01; 2.774610e-01
"31";"carmenere";"Etalon1-29";2022-07-08;291.6009217;121.47012;  84.00461;  47.351643; 530.78463; 131.35625;1.7740590; 2.400598048;NA;"29";189;1.5190;"2022";"rouge"; 2.523620e-01; 2.502148e-01; 2.460149e-01; 2.437139e-01; 2.372466e-01; 2.369488e-01; 2.385037e-01; 2.416897e-01; 2.468556e-01; 2.534530e-01; 2.571183e-01; 2.583511e-01; 2.594525e-01; 2.587732e-01; 2.561640e-01; 2.528910e-01; 2.491236e-01; 2.448566e-01; 2.414096e-01; 2.373646e-01; 2.328500e-01; 2.293816e-01; 2.266955e-01; 2.235747e-01; 2.218726e-01; 2.207412e-01; 2.200909e-01; 2.194582e-01; 2.199203e-01; 2.205926e-01; 2.216326e-01; 2.232574e-01; 2.239363e-01; 2.237756e-01; 2.239530e-01; 2.263162e-01; 2.315718e-01; 2.388193e-01; 2.453598e-01; 2.510347e-01; 2.567084e-01; 2.611578e-01; 2.637550e-01; 2.643008e-01; 2.641684e-01; 2.644823e-01; 2.648232e-01; 2.646382e-01; 2.640897e-01; 2.639750e-01; 2.639525e-01; 2.634725e-01; 2.631214e-01; 2.626305e-01; 2.619291e-01; 2.611719e-01; 2.600608e-01; 2.585796e-01; 2.581295e-01; 2.587472e-01; 2.598423e-01; 2.607818e-01; 2.618271e-01; 2.627468e-01; 2.636178e-01; 2.645917e-01; 2.659688e-01; 2.672805e-01; 2.680580e-01; 2.693594e-01; 2.692462e-01; 2.681768e-01; 2.678886e-01; 2.686233e-01; 2.702675e-01; 2.724248e-01; 2.750648e-01; 2.784460e-01; 2.820602e-01; 2.852274e-01; 2.878628e-01; 2.898878e-01; 2.912769e-01; 2.923376e-01; 2.928791e-01; 2.935193e-01; 2.937122e-01; 2.940544e-01; 2.947448e-01; 2.947998e-01; 2.942835e-01; 2.939626e-01; 2.937486e-01; 2.936152e-01; 2.939165e-01; 2.940695e-01; 2.938440e-01; 2.937449e-01; 2.934994e-01; 2.929834e-01; 2.924187e-01; 2.918545e-01; 2.911775e-01; 2.905113e-01; 2.898155e-01; 2.890711e-01; 2.882986e-01; 2.873657e-01; 2.865967e-01; 2.861238e-01; 2.856282e-01; 2.851115e-01; 2.844156e-01; 2.838785e-01; 2.835186e-01; 2.831847e-01; 2.827325e-01; 2.822652e-01; 2.817889e-01; 2.814283e-01; 2.810907e-01; 2.807918e-01; 2.805537e-01; 2.803899e-01; 2.802060e-01
"32";"carmenere";"Etalon4-40";2022-07-29; 59.1064294; 83.08945; 218.85275; 170.644740; 141.06351; 389.49749;1.2825051; 0.711359043;"carmenere";"40";210;1.8390;"2022";"rouge"; 2.483460e-01; 2.458490e-01; 2.458762e-01; 2.416274e-01; 2.380669e-01; 2.388824e-01; 2.392350e-01; 2.407646e-01; 2.455161e-01; 2.507080e-01; 2.562178e-01; 2.575665e-01; 2.596145e-01; 2.626519e-01; 2.621854e-01; 2.592438e-01; 2.559004e-01; 2.520653e-01; 2.485790e-01; 2.450820e-01; 2.410910e-01; 2.375460e-01; 2.351804e-01; 2.325594e-01; 2.303654e-01; 2.295308e-01; 2.286790e-01; 2.284764e-01; 2.291014e-01; 2.293362e-01; 2.300068e-01; 2.311062e-01; 2.317489e-01; 2.316666e-01; 2.320999e-01; 2.337470e-01; 2.369462e-01; 2.416922e-01; 2.459667e-01; 2.494827e-01; 2.528449e-01; 2.564845e-01; 2.585484e-01; 2.591212e-01; 2.591025e-01; 2.592730e-01; 2.595894e-01; 2.594237e-01; 2.592967e-01; 2.593253e-01; 2.593990e-01; 2.595975e-01; 2.595911e-01; 2.594211e-01; 2.591581e-01; 2.585898e-01; 2.576853e-01; 2.566894e-01; 2.564584e-01; 2.568451e-01; 2.575586e-01; 2.579355e-01; 2.582862e-01; 2.584704e-01; 2.586802e-01; 2.589173e-01; 2.595252e-01; 2.599829e-01; 2.602101e-01; 2.609728e-01; 2.614594e-01; 2.615800e-01; 2.618508e-01; 2.625625e-01; 2.632926e-01; 2.643388e-01; 2.657610e-01; 2.675298e-01; 2.696262e-01; 2.716971e-01; 2.732789e-01; 2.746737e-01; 2.756778e-01; 2.764302e-01; 2.767306e-01; 2.770213e-01; 2.772604e-01; 2.771665e-01; 2.773257e-01; 2.771704e-01; 2.769851e-01; 2.768204e-01; 2.763689e-01; 2.759975e-01; 2.756795e-01; 2.751815e-01; 2.747526e-01; 2.744640e-01; 2.739450e-01; 2.734461e-01; 2.730520e-01; 2.725854e-01; 2.721470e-01; 2.717389e-01; 2.713087e-01; 2.708448e-01; 2.704773e-01; 2.701315e-01; 2.697315e-01; 2.695421e-01; 2.692654e-01; 2.689419e-01; 2.685653e-01; 2.682720e-01; 2.679787e-01; 2.677147e-01; 2.674631e-01; 2.671715e-01; 2.670554e-01; 2.667683e-01; 2.666198e-01; 2.664497e-01; 2.662998e-01; 2.661603e-01; 2.659995e-01
"33";"carmenere";"Etalon8-51";2022-08-24; 42.7010954;109.57054; 680.22350; 620.810312;  44.95400;1301.03381;1.0957026; 0.389713303;NA;"51";236;1.3240;"2022";"rouge"; 2.547220e-01; 2.562240e-01; 2.548120e-01; 2.560150e-01; 2.565910e-01; 2.598210e-01; 2.614470e-01; 2.673880e-01; 2.744940e-01; 2.858210e-01; 2.999490e-01; 3.075420e-01; 3.136410e-01; 3.181660e-01; 3.168320e-01; 3.102950e-01; 3.023180e-01; 2.927880e-01; 2.849180e-01; 2.775790e-01; 2.700390e-01; 2.630360e-01; 2.570400e-01; 2.510540e-01; 2.478100e-01; 2.452370e-01; 2.441440e-01; 2.447890e-01; 2.456000e-01; 2.468970e-01; 2.487890e-01; 2.508200e-01; 2.523400e-01; 2.527660e-01; 2.528050e-01; 2.538930e-01; 2.573280e-01; 2.626630e-01; 2.665990e-01; 2.700080e-01; 2.759410e-01; 2.833950e-01; 2.885420e-01; 2.902490e-01; 2.904960e-01; 2.913540e-01; 2.919910e-01; 2.916350e-01; 2.916860e-01; 2.924480e-01; 2.934470e-01; 2.942430e-01; 2.948200e-01; 2.948120e-01; 2.940000e-01; 2.927830e-01; 2.907560e-01; 2.875930e-01; 2.866750e-01; 2.878410e-01; 2.890800e-01; 2.892290e-01; 2.888300e-01; 2.873320e-01; 2.853160e-01; 2.835800e-01; 2.822790e-01; 2.804180e-01; 2.778070e-01; 2.765290e-01; 2.748540e-01; 2.725700e-01; 2.712740e-01; 2.711970e-01; 2.714460e-01; 2.718880e-01; 2.724170e-01; 2.730420e-01; 2.739020e-01; 2.747290e-01; 2.753780e-01; 2.760600e-01; 2.765080e-01; 2.764730e-01; 2.763290e-01; 2.763320e-01; 2.761670e-01; 2.763170e-01; 2.766360e-01; 2.765850e-01; 2.763050e-01; 2.762430e-01; 2.762160e-01; 2.763690e-01; 2.771590e-01; 2.780320e-01; 2.787560e-01; 2.796300e-01; 2.802340e-01; 2.806570e-01; 2.810580e-01; 2.811970e-01; 2.813410e-01; 2.815000e-01; 2.813390e-01; 2.811170e-01; 2.808540e-01; 2.802590e-01; 2.799630e-01; 2.799590e-01; 2.800110e-01; 2.797850e-01; 2.795650e-01; 2.794120e-01; 2.794250e-01; 2.795840e-01; 2.794250e-01; 2.792230e-01; 2.790340e-01; 2.788350e-01; 2.787390e-01; 2.786090e-01; 2.783680e-01; 2.782020e-01; 2.779770e-01
"34";"carmenere";"Etalon4-42";2022-07-29; 67.8357846;155.60587; 347.38114; 269.015767; 175.31491; 616.39690;1.2913040; 0.435946188;"carmenere";"42";210;1.1760;"2022";"rouge"; 2.526627e-01; 2.518551e-01; 2.480652e-01; 2.453052e-01; 2.427277e-01; 2.443892e-01; 2.428225e-01; 2.454199e-01; 2.506776e-01; 2.549587e-01; 2.601752e-01; 2.613826e-01; 2.633142e-01; 2.661455e-01; 2.659817e-01; 2.626849e-01; 2.591398e-01; 2.568375e-01; 2.535069e-01; 2.492842e-01; 2.454396e-01; 2.423195e-01; 2.398948e-01; 2.372280e-01; 2.357143e-01; 2.349039e-01; 2.337659e-01; 2.335684e-01; 2.342718e-01; 2.348852e-01; 2.353813e-01; 2.361818e-01; 2.371557e-01; 2.373352e-01; 2.378908e-01; 2.394460e-01; 2.427454e-01; 2.477577e-01; 2.521057e-01; 2.557300e-01; 2.591149e-01; 2.623841e-01; 2.648987e-01; 2.655835e-01; 2.656409e-01; 2.658050e-01; 2.660394e-01; 2.660040e-01; 2.658358e-01; 2.658703e-01; 2.660857e-01; 2.663699e-01; 2.665029e-01; 2.663224e-01; 2.660586e-01; 2.657312e-01; 2.647766e-01; 2.638650e-01; 2.636870e-01; 2.638994e-01; 2.647190e-01; 2.653127e-01; 2.656101e-01; 2.657941e-01; 2.658138e-01; 2.660248e-01; 2.665930e-01; 2.668545e-01; 2.670130e-01; 2.675700e-01; 2.678372e-01; 2.679687e-01; 2.682067e-01; 2.687876e-01; 2.695497e-01; 2.705422e-01; 2.719689e-01; 2.738120e-01; 2.758492e-01; 2.777202e-01; 2.794213e-01; 2.806365e-01; 2.815746e-01; 2.822339e-01; 2.826296e-01; 2.828797e-01; 2.829347e-01; 2.830602e-01; 2.831568e-01; 2.828604e-01; 2.828169e-01; 2.826200e-01; 2.822399e-01; 2.819765e-01; 2.816352e-01; 2.811810e-01; 2.808420e-01; 2.804603e-01; 2.800220e-01; 2.795488e-01; 2.792495e-01; 2.788028e-01; 2.783916e-01; 2.779609e-01; 2.775658e-01; 2.771793e-01; 2.768022e-01; 2.764929e-01; 2.761698e-01; 2.758322e-01; 2.756102e-01; 2.753460e-01; 2.750599e-01; 2.747380e-01; 2.745537e-01; 2.743689e-01; 2.740168e-01; 2.737980e-01; 2.736374e-01; 2.734392e-01; 2.733598e-01; 2.731792e-01; 2.729720e-01; 2.728092e-01; 2.726212e-01
"35";"carmenere";"Etalon7-44";2022-08-18; 22.8818453;159.42502; 310.20728; 278.812533; 110.38633; 589.01981;1.1126016; 0.143527314;"carmenere";"44";230;1.0800;"2022";"rouge"; 2.539920e-01; 2.536160e-01; 2.472390e-01; 2.482350e-01; 2.441660e-01; 2.447240e-01; 2.453140e-01; 2.466690e-01; 2.492360e-01; 2.511250e-01; 2.524350e-01; 2.521240e-01; 2.526820e-01; 2.532790e-01; 2.532150e-01; 2.522210e-01; 2.514090e-01; 2.501520e-01; 2.473190e-01; 2.461320e-01; 2.448780e-01; 2.433980e-01; 2.425950e-01; 2.415040e-01; 2.406330e-01; 2.405640e-01; 2.402930e-01; 2.400370e-01; 2.401200e-01; 2.402520e-01; 2.410830e-01; 2.414100e-01; 2.416290e-01; 2.421680e-01; 2.432670e-01; 2.449930e-01; 2.479190e-01; 2.524230e-01; 2.567420e-01; 2.594970e-01; 2.614850e-01; 2.629300e-01; 2.639780e-01; 2.642460e-01; 2.643950e-01; 2.647520e-01; 2.649050e-01; 2.649680e-01; 2.647220e-01; 2.645470e-01; 2.645060e-01; 2.642400e-01; 2.643070e-01; 2.643820e-01; 2.641820e-01; 2.637970e-01; 2.636140e-01; 2.635420e-01; 2.635410e-01; 2.637650e-01; 2.641600e-01; 2.647240e-01; 2.652610e-01; 2.658340e-01; 2.666140e-01; 2.674010e-01; 2.683690e-01; 2.695320e-01; 2.704300e-01; 2.710950e-01; 2.719530e-01; 2.726120e-01; 2.732180e-01; 2.737630e-01; 2.743850e-01; 2.749930e-01; 2.759810e-01; 2.771340e-01; 2.783530e-01; 2.794330e-01; 2.804220e-01; 2.810260e-01; 2.813850e-01; 2.817310e-01; 2.817760e-01; 2.818130e-01; 2.817710e-01; 2.817180e-01; 2.816290e-01; 2.815140e-01; 2.813780e-01; 2.812820e-01; 2.811010e-01; 2.807670e-01; 2.806200e-01; 2.802050e-01; 2.799450e-01; 2.797970e-01; 2.794600e-01; 2.790550e-01; 2.788690e-01; 2.785970e-01; 2.782210e-01; 2.780260e-01; 2.776090e-01; 2.772540e-01; 2.770450e-01; 2.768110e-01; 2.764640e-01; 2.763000e-01; 2.761770e-01; 2.757900e-01; 2.756370e-01; 2.754710e-01; 2.752350e-01; 2.752730e-01; 2.749390e-01; 2.746940e-01; 2.745710e-01; 2.743330e-01; 2.742170e-01; 2.741430e-01; 2.740820e-01; 2.742320e-01; 2.743070e-01
"36";"carmenere";"Etalon3-1";2022-07-26; 44.0407318; 86.10021; 191.39119; 164.789765; 175.91559; 356.18096;1.1614265; 0.511505533;"carmenere";"1";207;1.0420;"2022";"rouge"; 3.211914e-01; 3.274430e-01; 3.339447e-01; 3.267369e-01; 3.122673e-01; 3.160115e-01; 3.239209e-01; 3.389149e-01; 3.577068e-01; 3.881666e-01; 4.220398e-01; 4.279237e-01; 4.405719e-01; 4.470789e-01; 4.423911e-01; 4.281128e-01; 4.117339e-01; 3.984886e-01; 3.858081e-01; 3.722942e-01; 3.607282e-01; 3.487605e-01; 3.382154e-01; 3.300896e-01; 3.225253e-01; 3.160163e-01; 3.118986e-01; 3.083916e-01; 3.059610e-01; 3.044483e-01; 3.018451e-01; 2.989937e-01; 2.945960e-01; 2.843825e-01; 2.760486e-01; 2.762404e-01; 2.820118e-01; 2.925398e-01; 2.975829e-01; 3.026557e-01; 3.136428e-01; 3.244737e-01; 3.303844e-01; 3.311732e-01; 3.300955e-01; 3.303465e-01; 3.307774e-01; 3.289821e-01; 3.279607e-01; 3.285121e-01; 3.287611e-01; 3.285460e-01; 3.284795e-01; 3.278069e-01; 3.262337e-01; 3.244995e-01; 3.216747e-01; 3.173272e-01; 3.158933e-01; 3.165993e-01; 3.178677e-01; 3.184177e-01; 3.182196e-01; 3.168038e-01; 3.148498e-01; 3.126451e-01; 3.107386e-01; 3.082373e-01; 3.045064e-01; 3.019543e-01; 2.975040e-01; 2.902523e-01; 2.857741e-01; 2.847733e-01; 2.850108e-01; 2.856230e-01; 2.865456e-01; 2.877715e-01; 2.892116e-01; 2.906350e-01; 2.919176e-01; 2.930798e-01; 2.940476e-01; 2.950118e-01; 2.957193e-01; 2.959900e-01; 2.965750e-01; 2.971964e-01; 2.985449e-01; 2.990779e-01; 2.983741e-01; 2.981561e-01; 2.983532e-01; 2.989973e-01; 3.003798e-01; 3.017556e-01; 3.026359e-01; 3.035170e-01; 3.041553e-01; 3.043809e-01; 3.046534e-01; 3.046027e-01; 3.043662e-01; 3.042462e-01; 3.038936e-01; 3.033803e-01; 3.027723e-01; 3.019807e-01; 3.012338e-01; 3.012632e-01; 3.009825e-01; 3.008118e-01; 3.002772e-01; 2.999208e-01; 2.998093e-01; 2.997753e-01; 2.997253e-01; 2.993739e-01; 2.989250e-01; 2.985500e-01; 2.982514e-01; 2.978815e-01; 2.975307e-01; 2.972534e-01; 2.968829e-01
"37";"carmenere";"Etalon8-57";2022-08-24; 39.9104791; 87.92261; 610.55109; 540.680441;  36.49460;1151.23154;1.1292273; 0.453927388;NA;"57";236;2.0290;"2022";"rouge"; 2.615350e-01; 2.651940e-01; 2.634210e-01; 2.630020e-01; 2.580630e-01; 2.610730e-01; 2.614100e-01; 2.657770e-01; 2.743290e-01; 2.865480e-01; 3.018250e-01; 3.084340e-01; 3.167580e-01; 3.239540e-01; 3.239070e-01; 3.185170e-01; 3.113890e-01; 3.045010e-01; 2.968590e-01; 2.894080e-01; 2.831300e-01; 2.765670e-01; 2.711450e-01; 2.661120e-01; 2.608260e-01; 2.580330e-01; 2.569480e-01; 2.559450e-01; 2.556050e-01; 2.562580e-01; 2.561610e-01; 2.556100e-01; 2.548260e-01; 2.522850e-01; 2.497610e-01; 2.502810e-01; 2.529570e-01; 2.570920e-01; 2.597720e-01; 2.624320e-01; 2.681240e-01; 2.755160e-01; 2.806620e-01; 2.822240e-01; 2.822650e-01; 2.829580e-01; 2.836110e-01; 2.833040e-01; 2.832330e-01; 2.841380e-01; 2.853610e-01; 2.861310e-01; 2.869340e-01; 2.870240e-01; 2.863320e-01; 2.853000e-01; 2.834640e-01; 2.804580e-01; 2.794910e-01; 2.804920e-01; 2.816160e-01; 2.817110e-01; 2.811550e-01; 2.794370e-01; 2.773210e-01; 2.753350e-01; 2.738580e-01; 2.720390e-01; 2.694300e-01; 2.680360e-01; 2.662900e-01; 2.640890e-01; 2.631250e-01; 2.628500e-01; 2.631400e-01; 2.636310e-01; 2.642080e-01; 2.649980e-01; 2.658990e-01; 2.668780e-01; 2.677220e-01; 2.684610e-01; 2.689400e-01; 2.690300e-01; 2.691740e-01; 2.691410e-01; 2.691490e-01; 2.692160e-01; 2.694170e-01; 2.693040e-01; 2.691110e-01; 2.689550e-01; 2.689640e-01; 2.692310e-01; 2.698330e-01; 2.707810e-01; 2.713980e-01; 2.722230e-01; 2.726680e-01; 2.730510e-01; 2.733990e-01; 2.736650e-01; 2.737060e-01; 2.737760e-01; 2.736630e-01; 2.733650e-01; 2.731230e-01; 2.726280e-01; 2.722950e-01; 2.723140e-01; 2.723340e-01; 2.721890e-01; 2.719000e-01; 2.718060e-01; 2.718140e-01; 2.719080e-01; 2.717980e-01; 2.716010e-01; 2.713930e-01; 2.712560e-01; 2.711740e-01; 2.710360e-01; 2.708250e-01; 2.707540e-01; 2.706310e-01
"38";"carmenere";"Etalon1-35";2022-07-08;314.4258712;124.78297;  86.01760;  42.040131; 498.03430; 128.05774;2.0460832; 2.519781817;NA;"35";189;0.8530;"2022";"rouge"; 2.469646e-01; 2.413699e-01; 2.367530e-01; 2.322706e-01; 2.259788e-01; 2.254361e-01; 2.261595e-01; 2.286972e-01; 2.342855e-01; 2.395755e-01; 2.435050e-01; 2.448738e-01; 2.448102e-01; 2.439880e-01; 2.418350e-01; 2.382153e-01; 2.339247e-01; 2.291539e-01; 2.253109e-01; 2.210183e-01; 2.168687e-01; 2.135268e-01; 2.105066e-01; 2.079141e-01; 2.058102e-01; 2.043860e-01; 2.040369e-01; 2.037112e-01; 2.043584e-01; 2.049840e-01; 2.060974e-01; 2.075727e-01; 2.089932e-01; 2.093664e-01; 2.099531e-01; 2.128441e-01; 2.188960e-01; 2.276294e-01; 2.357861e-01; 2.430425e-01; 2.495700e-01; 2.541334e-01; 2.562922e-01; 2.571011e-01; 2.571428e-01; 2.576095e-01; 2.579780e-01; 2.576322e-01; 2.571031e-01; 2.567939e-01; 2.565104e-01; 2.558043e-01; 2.551831e-01; 2.545149e-01; 2.535603e-01; 2.525176e-01; 2.514760e-01; 2.500603e-01; 2.496182e-01; 2.502911e-01; 2.513911e-01; 2.526897e-01; 2.539826e-01; 2.552781e-01; 2.568546e-01; 2.586450e-01; 2.609672e-01; 2.632376e-01; 2.649618e-01; 2.671324e-01; 2.677722e-01; 2.675671e-01; 2.676451e-01; 2.689044e-01; 2.709036e-01; 2.735762e-01; 2.767366e-01; 2.802754e-01; 2.837768e-01; 2.867526e-01; 2.890565e-01; 2.909809e-01; 2.923087e-01; 2.933904e-01; 2.940597e-01; 2.945381e-01; 2.948335e-01; 2.950882e-01; 2.959186e-01; 2.959583e-01; 2.954888e-01; 2.951058e-01; 2.948896e-01; 2.949056e-01; 2.950940e-01; 2.952735e-01; 2.950864e-01; 2.951355e-01; 2.948757e-01; 2.945057e-01; 2.940389e-01; 2.934760e-01; 2.928445e-01; 2.924548e-01; 2.915691e-01; 2.909063e-01; 2.901691e-01; 2.893522e-01; 2.885718e-01; 2.881081e-01; 2.876291e-01; 2.870831e-01; 2.864494e-01; 2.858976e-01; 2.854421e-01; 2.851713e-01; 2.846385e-01; 2.841220e-01; 2.836506e-01; 2.832176e-01; 2.828936e-01; 2.826340e-01; 2.822534e-01; 2.820726e-01; 2.818586e-01
"39";"carmenere";"Etalon2-37";2022-07-15;162.0757752;129.00375; 249.39984; 165.494617; 928.98963; 414.89446;1.5069967; 1.256364824;NA;"37";196;0.7990;"2022";"rouge"; 2.734318e-01; 2.715676e-01; 2.681652e-01; 2.654341e-01; 2.620872e-01; 2.646874e-01; 2.681186e-01; 2.754594e-01; 2.863423e-01; 3.023700e-01; 3.185173e-01; 3.223069e-01; 3.280909e-01; 3.294510e-01; 3.250212e-01; 3.154872e-01; 3.065106e-01; 2.963225e-01; 2.852101e-01; 2.753782e-01; 2.658436e-01; 2.577559e-01; 2.508530e-01; 2.446445e-01; 2.395695e-01; 2.374268e-01; 2.353094e-01; 2.348015e-01; 2.358518e-01; 2.374310e-01; 2.394884e-01; 2.414797e-01; 2.429351e-01; 2.425679e-01; 2.426134e-01; 2.456902e-01; 2.531319e-01; 2.638967e-01; 2.725510e-01; 2.805018e-01; 2.902223e-01; 2.987339e-01; 3.037387e-01; 3.053092e-01; 3.051872e-01; 3.056882e-01; 3.062502e-01; 3.053766e-01; 3.048521e-01; 3.050724e-01; 3.050754e-01; 3.046800e-01; 3.044464e-01; 3.038834e-01; 3.025667e-01; 3.009945e-01; 2.988928e-01; 2.958934e-01; 2.949507e-01; 2.957488e-01; 2.969818e-01; 2.980188e-01; 2.983032e-01; 2.982579e-01; 2.978430e-01; 2.976818e-01; 2.978470e-01; 2.975301e-01; 2.962251e-01; 2.957636e-01; 2.944143e-01; 2.914881e-01; 2.903498e-01; 2.905398e-01; 2.915221e-01; 2.926094e-01; 2.936609e-01; 2.948077e-01; 2.958396e-01; 2.968607e-01; 2.975956e-01; 2.982371e-01; 2.987832e-01; 2.990249e-01; 2.992826e-01; 2.993029e-01; 2.995016e-01; 2.996909e-01; 3.003191e-01; 3.004026e-01; 3.000680e-01; 2.998928e-01; 3.001057e-01; 3.004604e-01; 3.012782e-01; 3.021711e-01; 3.029779e-01; 3.036992e-01; 3.042555e-01; 3.046223e-01; 3.049338e-01; 3.050412e-01; 3.049778e-01; 3.050672e-01; 3.048887e-01; 3.046231e-01; 3.042153e-01; 3.037826e-01; 3.033800e-01; 3.031891e-01; 3.031334e-01; 3.028837e-01; 3.026294e-01; 3.022173e-01; 3.020014e-01; 3.020470e-01; 3.018426e-01; 3.014823e-01; 3.011265e-01; 3.007718e-01; 3.005078e-01; 3.002179e-01; 2.999577e-01; 2.996601e-01; 2.993061e-01
"40";"carmenere";"Etalon7-37";2022-08-18; 33.3432045; 87.14692; 478.74389; 449.169904;  45.03773; 927.91379;1.0658414; 0.382609105;"carmenere";"37";230;1.7760;"2022";"rouge"; 2.601830e-01; 2.570250e-01; 2.566420e-01; 2.558600e-01; 2.566860e-01; 2.563480e-01; 2.556680e-01; 2.568650e-01; 2.578480e-01; 2.604720e-01; 2.610160e-01; 2.607080e-01; 2.611350e-01; 2.620720e-01; 2.620580e-01; 2.609840e-01; 2.593710e-01; 2.589450e-01; 2.584070e-01; 2.573330e-01; 2.557340e-01; 2.546510e-01; 2.539050e-01; 2.531040e-01; 2.522390e-01; 2.518720e-01; 2.522680e-01; 2.522250e-01; 2.525270e-01; 2.530680e-01; 2.533300e-01; 2.540520e-01; 2.547550e-01; 2.555930e-01; 2.562940e-01; 2.573460e-01; 2.591390e-01; 2.619130e-01; 2.641050e-01; 2.661580e-01; 2.673940e-01; 2.679070e-01; 2.684390e-01; 2.688850e-01; 2.690700e-01; 2.692410e-01; 2.694850e-01; 2.694390e-01; 2.693550e-01; 2.693490e-01; 2.692500e-01; 2.692010e-01; 2.691870e-01; 2.691570e-01; 2.690490e-01; 2.687640e-01; 2.687500e-01; 2.687120e-01; 2.686570e-01; 2.688070e-01; 2.689300e-01; 2.692570e-01; 2.695870e-01; 2.698980e-01; 2.703230e-01; 2.708140e-01; 2.712670e-01; 2.717450e-01; 2.721980e-01; 2.726960e-01; 2.730580e-01; 2.732800e-01; 2.733960e-01; 2.736220e-01; 2.740300e-01; 2.743280e-01; 2.746560e-01; 2.754860e-01; 2.762500e-01; 2.771470e-01; 2.778970e-01; 2.785110e-01; 2.788800e-01; 2.791550e-01; 2.792400e-01; 2.792010e-01; 2.791580e-01; 2.789180e-01; 2.790980e-01; 2.789260e-01; 2.787270e-01; 2.788170e-01; 2.784880e-01; 2.783710e-01; 2.781600e-01; 2.780440e-01; 2.776440e-01; 2.776000e-01; 2.773490e-01; 2.771090e-01; 2.770090e-01; 2.767510e-01; 2.764270e-01; 2.763360e-01; 2.760660e-01; 2.759310e-01; 2.757040e-01; 2.755450e-01; 2.753550e-01; 2.751850e-01; 2.750450e-01; 2.749480e-01; 2.747490e-01; 2.746950e-01; 2.745010e-01; 2.743790e-01; 2.741750e-01; 2.739700e-01; 2.738770e-01; 2.737870e-01; 2.736470e-01; 2.735330e-01; 2.734050e-01; 2.732240e-01; 2.729730e-01
"41";"carmenere";"Etalon7-38";2022-08-18; 22.0670911;164.09226; 344.60638; 298.472240;  82.59289; 643.07862;1.1545676; 0.134479783;"carmenere";"38";230;1.7980;"2022";"rouge"; 2.445640e-01; 2.424820e-01; 2.351350e-01; 2.355410e-01; 2.345960e-01; 2.338740e-01; 2.332900e-01; 2.340920e-01; 2.366160e-01; 2.378030e-01; 2.373640e-01; 2.374250e-01; 2.370720e-01; 2.370890e-01; 2.364250e-01; 2.343260e-01; 2.328760e-01; 2.315040e-01; 2.292700e-01; 2.274580e-01; 2.258240e-01; 2.241910e-01; 2.229680e-01; 2.220230e-01; 2.211730e-01; 2.207650e-01; 2.207740e-01; 2.209420e-01; 2.214960e-01; 2.220950e-01; 2.234930e-01; 2.251150e-01; 2.266760e-01; 2.284160e-01; 2.304780e-01; 2.324870e-01; 2.352840e-01; 2.401300e-01; 2.456210e-01; 2.496960e-01; 2.523780e-01; 2.539640e-01; 2.548440e-01; 2.555610e-01; 2.559830e-01; 2.562890e-01; 2.566320e-01; 2.567040e-01; 2.564580e-01; 2.561920e-01; 2.560180e-01; 2.556740e-01; 2.553030e-01; 2.549410e-01; 2.548020e-01; 2.543470e-01; 2.540070e-01; 2.539450e-01; 2.539530e-01; 2.541520e-01; 2.545030e-01; 2.553430e-01; 2.563220e-01; 2.573160e-01; 2.586190e-01; 2.602940e-01; 2.622010e-01; 2.641460e-01; 2.659770e-01; 2.676650e-01; 2.693770e-01; 2.705890e-01; 2.714020e-01; 2.723790e-01; 2.734640e-01; 2.747310e-01; 2.761830e-01; 2.778450e-01; 2.794150e-01; 2.805650e-01; 2.815350e-01; 2.820700e-01; 2.825290e-01; 2.827700e-01; 2.827100e-01; 2.827960e-01; 2.827480e-01; 2.827170e-01; 2.825530e-01; 2.824690e-01; 2.822620e-01; 2.823190e-01; 2.821800e-01; 2.818730e-01; 2.818000e-01; 2.814190e-01; 2.812140e-01; 2.811150e-01; 2.808350e-01; 2.804810e-01; 2.803030e-01; 2.800920e-01; 2.798290e-01; 2.794970e-01; 2.792170e-01; 2.788990e-01; 2.786790e-01; 2.784790e-01; 2.781020e-01; 2.779240e-01; 2.778270e-01; 2.775080e-01; 2.773670e-01; 2.770650e-01; 2.768890e-01; 2.768520e-01; 2.765400e-01; 2.762650e-01; 2.760590e-01; 2.758700e-01; 2.757520e-01; 2.757020e-01; 2.756000e-01; 2.756850e-01; 2.757050e-01
"42";"carmenere";"Etalon1-28";2022-07-08;295.6158310;137.62773; 113.48812;  64.372257; 488.69335; 177.86038;1.7629974; 2.147937952;NA;"28";189;0.9520;"2022";"rouge"; 2.499228e-01; 2.445120e-01; 2.413024e-01; 2.393451e-01; 2.351547e-01; 2.342477e-01; 2.364429e-01; 2.399004e-01; 2.459096e-01; 2.512451e-01; 2.545963e-01; 2.567833e-01; 2.564697e-01; 2.556893e-01; 2.537442e-01; 2.502219e-01; 2.460458e-01; 2.410718e-01; 2.372235e-01; 2.329758e-01; 2.283108e-01; 2.243228e-01; 2.215201e-01; 2.193360e-01; 2.170277e-01; 2.159557e-01; 2.150887e-01; 2.151217e-01; 2.157655e-01; 2.166820e-01; 2.183609e-01; 2.202262e-01; 2.218093e-01; 2.226731e-01; 2.236428e-01; 2.265562e-01; 2.324189e-01; 2.402479e-01; 2.472771e-01; 2.534131e-01; 2.593044e-01; 2.639537e-01; 2.662814e-01; 2.667591e-01; 2.668042e-01; 2.674036e-01; 2.678287e-01; 2.673337e-01; 2.668744e-01; 2.667276e-01; 2.666019e-01; 2.663389e-01; 2.658825e-01; 2.652771e-01; 2.645937e-01; 2.638151e-01; 2.626880e-01; 2.611725e-01; 2.607893e-01; 2.615027e-01; 2.625461e-01; 2.636040e-01; 2.646695e-01; 2.656136e-01; 2.666735e-01; 2.678051e-01; 2.692973e-01; 2.706329e-01; 2.715325e-01; 2.727863e-01; 2.728239e-01; 2.716709e-01; 2.714019e-01; 2.721170e-01; 2.737751e-01; 2.757655e-01; 2.784674e-01; 2.818315e-01; 2.852330e-01; 2.883134e-01; 2.909406e-01; 2.927788e-01; 2.941440e-01; 2.951951e-01; 2.958193e-01; 2.962452e-01; 2.966137e-01; 2.969708e-01; 2.976801e-01; 2.977071e-01; 2.972475e-01; 2.968785e-01; 2.966763e-01; 2.966145e-01; 2.968295e-01; 2.969993e-01; 2.968405e-01; 2.967561e-01; 2.964651e-01; 2.959634e-01; 2.955748e-01; 2.949491e-01; 2.942858e-01; 2.936786e-01; 2.929353e-01; 2.921982e-01; 2.914416e-01; 2.905170e-01; 2.898058e-01; 2.892992e-01; 2.888177e-01; 2.883182e-01; 2.876920e-01; 2.870998e-01; 2.866606e-01; 2.864041e-01; 2.859603e-01; 2.854963e-01; 2.850217e-01; 2.845980e-01; 2.843063e-01; 2.839971e-01; 2.836942e-01; 2.834760e-01; 2.831966e-01
"43";"carmenere";"Etalon6-4";2022-08-11; 24.4397083;130.46050; 489.03455; 439.946192;  82.22122; 928.98075;1.1115781; 0.187334159;"carmenère";"4";223;0.9460;"2022";"rouge"; 2.503590e-01; 2.478986e-01; 2.464005e-01; 2.438000e-01; 2.431147e-01; 2.416847e-01; 2.433131e-01; 2.453121e-01; 2.475022e-01; 2.490124e-01; 2.494372e-01; 2.507389e-01; 2.510063e-01; 2.499264e-01; 2.494376e-01; 2.481691e-01; 2.467395e-01; 2.449984e-01; 2.434202e-01; 2.410241e-01; 2.386613e-01; 2.376301e-01; 2.362409e-01; 2.347008e-01; 2.339344e-01; 2.332725e-01; 2.333175e-01; 2.333530e-01; 2.335955e-01; 2.344273e-01; 2.349831e-01; 2.360478e-01; 2.368685e-01; 2.379177e-01; 2.393688e-01; 2.410935e-01; 2.443915e-01; 2.490395e-01; 2.534433e-01; 2.575127e-01; 2.599387e-01; 2.615224e-01; 2.628284e-01; 2.633295e-01; 2.634392e-01; 2.637841e-01; 2.641433e-01; 2.640833e-01; 2.637612e-01; 2.637114e-01; 2.637027e-01; 2.635542e-01; 2.630713e-01; 2.627349e-01; 2.626168e-01; 2.620877e-01; 2.616530e-01; 2.612225e-01; 2.611789e-01; 2.615058e-01; 2.617289e-01; 2.623239e-01; 2.630322e-01; 2.637534e-01; 2.646527e-01; 2.656402e-01; 2.669958e-01; 2.680610e-01; 2.691966e-01; 2.703252e-01; 2.712073e-01; 2.716988e-01; 2.720179e-01; 2.726155e-01; 2.733195e-01; 2.741363e-01; 2.752326e-01; 2.764354e-01; 2.776477e-01; 2.789686e-01; 2.800605e-01; 2.809753e-01; 2.815008e-01; 2.818761e-01; 2.821285e-01; 2.824155e-01; 2.824855e-01; 2.824608e-01; 2.825762e-01; 2.824300e-01; 2.823199e-01; 2.822146e-01; 2.818578e-01; 2.816462e-01; 2.814876e-01; 2.813704e-01; 2.811834e-01; 2.811128e-01; 2.807256e-01; 2.805111e-01; 2.803023e-01; 2.799259e-01; 2.797035e-01; 2.794898e-01; 2.790589e-01; 2.786869e-01; 2.784386e-01; 2.781063e-01; 2.776980e-01; 2.775542e-01; 2.773423e-01; 2.770287e-01; 2.768227e-01; 2.765075e-01; 2.762287e-01; 2.762069e-01; 2.758520e-01; 2.756273e-01; 2.754646e-01; 2.751496e-01; 2.749719e-01; 2.748672e-01; 2.745841e-01; 2.744758e-01; 2.742623e-01
"44";"carmenere";"Etalon7-40";2022-08-18; 20.4454255;144.72344; 311.21839; 270.666260;  97.46858; 581.88465;1.1498234; 0.141272383;"carmenere";"40";230;1.5870;"2022";"rouge"; 2.540910e-01; 2.510480e-01; 2.481990e-01; 2.469250e-01; 2.436240e-01; 2.451880e-01; 2.444890e-01; 2.465390e-01; 2.480020e-01; 2.492780e-01; 2.498490e-01; 2.509170e-01; 2.507310e-01; 2.517020e-01; 2.517200e-01; 2.494550e-01; 2.487230e-01; 2.481000e-01; 2.460130e-01; 2.439720e-01; 2.430740e-01; 2.418490e-01; 2.404390e-01; 2.399470e-01; 2.392930e-01; 2.391790e-01; 2.391270e-01; 2.385280e-01; 2.385410e-01; 2.387420e-01; 2.394470e-01; 2.398620e-01; 2.402530e-01; 2.407260e-01; 2.416250e-01; 2.429500e-01; 2.456820e-01; 2.497120e-01; 2.531560e-01; 2.559120e-01; 2.581250e-01; 2.591450e-01; 2.598050e-01; 2.603700e-01; 2.605620e-01; 2.607180e-01; 2.609220e-01; 2.608810e-01; 2.607950e-01; 2.607700e-01; 2.605410e-01; 2.602350e-01; 2.600540e-01; 2.600060e-01; 2.599380e-01; 2.595070e-01; 2.593200e-01; 2.593150e-01; 2.593800e-01; 2.594750e-01; 2.597280e-01; 2.603880e-01; 2.609590e-01; 2.614550e-01; 2.621100e-01; 2.631380e-01; 2.641920e-01; 2.652750e-01; 2.662660e-01; 2.672480e-01; 2.682780e-01; 2.689200e-01; 2.694800e-01; 2.702290e-01; 2.709820e-01; 2.719030e-01; 2.732190e-01; 2.748670e-01; 2.767260e-01; 2.785740e-01; 2.801500e-01; 2.810780e-01; 2.819290e-01; 2.823710e-01; 2.825650e-01; 2.828450e-01; 2.827240e-01; 2.826930e-01; 2.826520e-01; 2.824590e-01; 2.822440e-01; 2.821570e-01; 2.818100e-01; 2.813780e-01; 2.811110e-01; 2.805460e-01; 2.800960e-01; 2.796950e-01; 2.792460e-01; 2.787310e-01; 2.783890e-01; 2.779220e-01; 2.774560e-01; 2.771530e-01; 2.766200e-01; 2.761650e-01; 2.757050e-01; 2.755430e-01; 2.750800e-01; 2.747600e-01; 2.744790e-01; 2.740580e-01; 2.739310e-01; 2.735960e-01; 2.733330e-01; 2.732140e-01; 2.728890e-01; 2.725920e-01; 2.723990e-01; 2.721980e-01; 2.719530e-01; 2.718220e-01; 2.716640e-01; 2.715330e-01; 2.713340e-01
"45";"carmenere";"Etalon8-37";2022-08-24; 18.1553471;184.59137; 414.48537; 365.629150;  80.84856; 780.11452;1.1336223; 0.098354255;NA;"37";236;1.1900;"2022";"rouge"; 2.224110e-01; 2.197700e-01; 2.137790e-01; 2.221990e-01; 2.374890e-01; 2.383650e-01; 2.395280e-01; 2.442050e-01; 2.492050e-01; 2.522040e-01; 2.527440e-01; 2.548150e-01; 2.544950e-01; 2.507070e-01; 2.448980e-01; 2.394160e-01; 2.328790e-01; 2.256880e-01; 2.184200e-01; 2.107770e-01; 2.045860e-01; 2.002100e-01; 1.958920e-01; 1.932190e-01; 1.921370e-01; 1.918690e-01; 1.927670e-01; 1.948770e-01; 1.979620e-01; 2.023830e-01; 2.092910e-01; 2.164960e-01; 2.237150e-01; 2.319250e-01; 2.385750e-01; 2.422840e-01; 2.458230e-01; 2.512030e-01; 2.567430e-01; 2.613330e-01; 2.664240e-01; 2.714070e-01; 2.744960e-01; 2.756550e-01; 2.757000e-01; 2.762470e-01; 2.766900e-01; 2.761430e-01; 2.760960e-01; 2.762270e-01; 2.761170e-01; 2.762810e-01; 2.764440e-01; 2.760280e-01; 2.751870e-01; 2.742700e-01; 2.728220e-01; 2.710880e-01; 2.706230e-01; 2.711990e-01; 2.722480e-01; 2.731930e-01; 2.734870e-01; 2.734940e-01; 2.734140e-01; 2.733870e-01; 2.734680e-01; 2.731920e-01; 2.721690e-01; 2.719660e-01; 2.713200e-01; 2.699210e-01; 2.695780e-01; 2.698410e-01; 2.703870e-01; 2.709970e-01; 2.718690e-01; 2.728170e-01; 2.739290e-01; 2.748620e-01; 2.755800e-01; 2.760720e-01; 2.762230e-01; 2.761750e-01; 2.761020e-01; 2.758720e-01; 2.758860e-01; 2.756570e-01; 2.757940e-01; 2.756460e-01; 2.754490e-01; 2.753380e-01; 2.751800e-01; 2.752660e-01; 2.755740e-01; 2.760530e-01; 2.764900e-01; 2.768220e-01; 2.770590e-01; 2.773140e-01; 2.775090e-01; 2.774740e-01; 2.773710e-01; 2.774030e-01; 2.770360e-01; 2.767950e-01; 2.765500e-01; 2.761220e-01; 2.757630e-01; 2.755960e-01; 2.756890e-01; 2.753990e-01; 2.752010e-01; 2.749710e-01; 2.748930e-01; 2.749790e-01; 2.748790e-01; 2.746740e-01; 2.744240e-01; 2.742590e-01; 2.741370e-01; 2.740440e-01; 2.738800e-01; 2.736650e-01; 2.734740e-01
"46";"carmenere";"Etalon4-41";2022-07-29; 28.1888432; 76.67290; 167.32649; 136.253722;  57.52762; 303.58021;1.2280508; 0.367650652;"carmenere";"41";210;1.5690;"2022";"rouge"; 2.560594e-01; 2.565779e-01; 2.568210e-01; 2.539587e-01; 2.502966e-01; 2.505797e-01; 2.505904e-01; 2.525547e-01; 2.572975e-01; 2.631747e-01; 2.675476e-01; 2.698337e-01; 2.720142e-01; 2.751797e-01; 2.748893e-01; 2.719342e-01; 2.683726e-01; 2.658923e-01; 2.631693e-01; 2.592905e-01; 2.558885e-01; 2.529631e-01; 2.508430e-01; 2.488108e-01; 2.469930e-01; 2.459354e-01; 2.446573e-01; 2.446391e-01; 2.448676e-01; 2.450201e-01; 2.451638e-01; 2.461039e-01; 2.465514e-01; 2.462108e-01; 2.464141e-01; 2.476310e-01; 2.503838e-01; 2.546899e-01; 2.581802e-01; 2.611608e-01; 2.645042e-01; 2.678253e-01; 2.700481e-01; 2.706722e-01; 2.705390e-01; 2.707036e-01; 2.709565e-01; 2.708904e-01; 2.706854e-01; 2.707302e-01; 2.707943e-01; 2.709238e-01; 2.710589e-01; 2.708954e-01; 2.706820e-01; 2.704082e-01; 2.697072e-01; 2.686334e-01; 2.683893e-01; 2.686184e-01; 2.694135e-01; 2.697467e-01; 2.698734e-01; 2.699123e-01; 2.699529e-01; 2.700476e-01; 2.703542e-01; 2.705209e-01; 2.706350e-01; 2.711679e-01; 2.712735e-01; 2.711514e-01; 2.712611e-01; 2.717370e-01; 2.724353e-01; 2.731608e-01; 2.742686e-01; 2.757514e-01; 2.772346e-01; 2.787941e-01; 2.801288e-01; 2.810444e-01; 2.818564e-01; 2.824317e-01; 2.826534e-01; 2.827980e-01; 2.829428e-01; 2.829232e-01; 2.830202e-01; 2.827842e-01; 2.827480e-01; 2.825566e-01; 2.822536e-01; 2.819878e-01; 2.817133e-01; 2.813207e-01; 2.810452e-01; 2.807882e-01; 2.803476e-01; 2.799940e-01; 2.797523e-01; 2.792933e-01; 2.790551e-01; 2.787278e-01; 2.782639e-01; 2.779835e-01; 2.776543e-01; 2.773851e-01; 2.770151e-01; 2.768785e-01; 2.766930e-01; 2.764612e-01; 2.761268e-01; 2.758411e-01; 2.756527e-01; 2.755300e-01; 2.752398e-01; 2.749515e-01; 2.747897e-01; 2.746256e-01; 2.744801e-01; 2.743227e-01; 2.741070e-01; 2.738823e-01; 2.736419e-01
"47";"carmenere";"Etalon8-39";2022-08-24; 16.5096640;166.03073; 402.21965; 354.680560;  64.63043; 756.90021;1.1340336; 0.099437400;NA;"39";236;1.1850;"2022";"rouge"; 2.355580e-01; 2.337450e-01; 2.290470e-01; 2.328870e-01; 2.373970e-01; 2.377110e-01; 2.388110e-01; 2.433480e-01; 2.487840e-01; 2.560420e-01; 2.643900e-01; 2.662820e-01; 2.695860e-01; 2.711170e-01; 2.682170e-01; 2.622830e-01; 2.561960e-01; 2.502680e-01; 2.436920e-01; 2.364000e-01; 2.301280e-01; 2.251150e-01; 2.199160e-01; 2.164470e-01; 2.147050e-01; 2.128560e-01; 2.126600e-01; 2.133180e-01; 2.146060e-01; 2.175160e-01; 2.207860e-01; 2.244400e-01; 2.275350e-01; 2.302880e-01; 2.329670e-01; 2.351260e-01; 2.386390e-01; 2.442000e-01; 2.484380e-01; 2.520800e-01; 2.572350e-01; 2.627620e-01; 2.663240e-01; 2.676220e-01; 2.675540e-01; 2.681140e-01; 2.687490e-01; 2.684120e-01; 2.682770e-01; 2.687360e-01; 2.691260e-01; 2.695570e-01; 2.700190e-01; 2.700170e-01; 2.693980e-01; 2.684420e-01; 2.671880e-01; 2.651090e-01; 2.645440e-01; 2.652980e-01; 2.662660e-01; 2.669460e-01; 2.669430e-01; 2.663650e-01; 2.658700e-01; 2.652630e-01; 2.649710e-01; 2.644380e-01; 2.632580e-01; 2.628780e-01; 2.621670e-01; 2.609160e-01; 2.606740e-01; 2.609590e-01; 2.616280e-01; 2.626240e-01; 2.639390e-01; 2.655530e-01; 2.673370e-01; 2.690950e-01; 2.704650e-01; 2.714130e-01; 2.720630e-01; 2.723480e-01; 2.723100e-01; 2.722550e-01; 2.722940e-01; 2.721640e-01; 2.722920e-01; 2.721790e-01; 2.719280e-01; 2.716670e-01; 2.714240e-01; 2.713770e-01; 2.716550e-01; 2.720600e-01; 2.722250e-01; 2.724190e-01; 2.725270e-01; 2.725900e-01; 2.725930e-01; 2.725210e-01; 2.722350e-01; 2.720330e-01; 2.716890e-01; 2.714000e-01; 2.709800e-01; 2.705150e-01; 2.701020e-01; 2.698820e-01; 2.698670e-01; 2.694900e-01; 2.693570e-01; 2.690110e-01; 2.690410e-01; 2.690770e-01; 2.688640e-01; 2.686920e-01; 2.684390e-01; 2.682530e-01; 2.681740e-01; 2.680900e-01; 2.679860e-01; 2.677900e-01; 2.675710e-01
"48";"carmenere";"Etalon5-7";2022-08-04; 60.6887908;134.87191; 379.51755; 307.065314; 153.21422; 686.58287;1.2359506; 0.449973531;"carmenere";"7";216;1.8450;"2022";"rouge"; 2.623570e-01; 2.617880e-01; 2.585260e-01; 2.580360e-01; 2.527630e-01; 2.532390e-01; 2.535870e-01; 2.557620e-01; 2.610880e-01; 2.648340e-01; 2.708980e-01; 2.721390e-01; 2.734530e-01; 2.732090e-01; 2.725190e-01; 2.712680e-01; 2.681470e-01; 2.658930e-01; 2.635010e-01; 2.599040e-01; 2.564390e-01; 2.538610e-01; 2.521820e-01; 2.504010e-01; 2.485090e-01; 2.475440e-01; 2.467710e-01; 2.460790e-01; 2.461920e-01; 2.466870e-01; 2.468260e-01; 2.472730e-01; 2.472030e-01; 2.463250e-01; 2.464060e-01; 2.479480e-01; 2.512290e-01; 2.562360e-01; 2.607180e-01; 2.647550e-01; 2.688700e-01; 2.722680e-01; 2.741240e-01; 2.748810e-01; 2.750580e-01; 2.751460e-01; 2.755490e-01; 2.754980e-01; 2.751570e-01; 2.752050e-01; 2.752670e-01; 2.751000e-01; 2.748340e-01; 2.745740e-01; 2.743070e-01; 2.737170e-01; 2.729240e-01; 2.720930e-01; 2.717240e-01; 2.719390e-01; 2.725760e-01; 2.732570e-01; 2.737680e-01; 2.741510e-01; 2.744930e-01; 2.750450e-01; 2.757890e-01; 2.763580e-01; 2.767910e-01; 2.774020e-01; 2.775130e-01; 2.772400e-01; 2.771180e-01; 2.775030e-01; 2.783080e-01; 2.793570e-01; 2.805700e-01; 2.821080e-01; 2.837320e-01; 2.851620e-01; 2.864030e-01; 2.873480e-01; 2.881590e-01; 2.886400e-01; 2.888960e-01; 2.890160e-01; 2.890740e-01; 2.891830e-01; 2.894200e-01; 2.892560e-01; 2.891440e-01; 2.890410e-01; 2.887590e-01; 2.885990e-01; 2.886970e-01; 2.888070e-01; 2.888470e-01; 2.887910e-01; 2.887290e-01; 2.884520e-01; 2.884130e-01; 2.881440e-01; 2.877670e-01; 2.875830e-01; 2.872030e-01; 2.868840e-01; 2.864170e-01; 2.859890e-01; 2.855610e-01; 2.853170e-01; 2.851450e-01; 2.848160e-01; 2.846000e-01; 2.842870e-01; 2.840270e-01; 2.838780e-01; 2.836230e-01; 2.834380e-01; 2.832070e-01; 2.830470e-01; 2.827500e-01; 2.825210e-01; 2.824950e-01; 2.824930e-01; 2.824590e-01
"49";"carmenere";"Etalon7-45";2022-08-18; 31.4564434;111.84418; 491.18683; 450.374074;   0.00000; 941.56090;1.0906197; 0.281252406;"carmenere";"45";230;0.9770;"2022";"rouge"; 2.595270e-01; 2.569290e-01; 2.539120e-01; 2.524560e-01; 2.496470e-01; 2.501270e-01; 2.513430e-01; 2.527080e-01; 2.559490e-01; 2.568640e-01; 2.584280e-01; 2.579870e-01; 2.582230e-01; 2.590770e-01; 2.585390e-01; 2.573400e-01; 2.562030e-01; 2.543280e-01; 2.518450e-01; 2.497250e-01; 2.488680e-01; 2.473250e-01; 2.462080e-01; 2.447980e-01; 2.442870e-01; 2.438060e-01; 2.433350e-01; 2.428170e-01; 2.428540e-01; 2.432230e-01; 2.438640e-01; 2.439510e-01; 2.440710e-01; 2.446710e-01; 2.456650e-01; 2.471670e-01; 2.499090e-01; 2.540440e-01; 2.583410e-01; 2.615140e-01; 2.636620e-01; 2.650340e-01; 2.659210e-01; 2.664890e-01; 2.666680e-01; 2.665680e-01; 2.666000e-01; 2.665000e-01; 2.663330e-01; 2.662960e-01; 2.660980e-01; 2.655970e-01; 2.653920e-01; 2.652090e-01; 2.647830e-01; 2.645100e-01; 2.642720e-01; 2.640200e-01; 2.638950e-01; 2.639000e-01; 2.641240e-01; 2.646540e-01; 2.650480e-01; 2.655600e-01; 2.664310e-01; 2.673590e-01; 2.682960e-01; 2.693860e-01; 2.704380e-01; 2.714140e-01; 2.722860e-01; 2.729800e-01; 2.735280e-01; 2.741150e-01; 2.746750e-01; 2.753470e-01; 2.760640e-01; 2.769850e-01; 2.779530e-01; 2.786540e-01; 2.795280e-01; 2.799870e-01; 2.801160e-01; 2.803060e-01; 2.803040e-01; 2.801540e-01; 2.800600e-01; 2.799080e-01; 2.797740e-01; 2.795730e-01; 2.794030e-01; 2.792720e-01; 2.791180e-01; 2.788260e-01; 2.785090e-01; 2.781840e-01; 2.778960e-01; 2.777150e-01; 2.773500e-01; 2.769760e-01; 2.767550e-01; 2.765810e-01; 2.762280e-01; 2.760000e-01; 2.756160e-01; 2.753360e-01; 2.749880e-01; 2.748910e-01; 2.745000e-01; 2.743030e-01; 2.741990e-01; 2.737990e-01; 2.737390e-01; 2.734240e-01; 2.732000e-01; 2.731550e-01; 2.728920e-01; 2.727000e-01; 2.724370e-01; 2.722920e-01; 2.720360e-01; 2.719520e-01; 2.719000e-01; 2.719890e-01; 2.719860e-01
"50";"carmenere";"Etalon6-1";2022-08-11; 36.0233659;130.23193; 627.19400; 530.154127;  95.92681;1157.34812;1.1830409; 0.276609315;"carmenère";"1";223;0.6500;"2022";"rouge"; 2.482444e-01; 2.454264e-01; 2.442443e-01; 2.428309e-01; 2.402392e-01; 2.394698e-01; 2.394479e-01; 2.426056e-01; 2.448804e-01; 2.464912e-01; 2.480630e-01; 2.489427e-01; 2.479001e-01; 2.479637e-01; 2.474318e-01; 2.455024e-01; 2.441400e-01; 2.427950e-01; 2.407933e-01; 2.384676e-01; 2.365243e-01; 2.349265e-01; 2.331463e-01; 2.312884e-01; 2.306576e-01; 2.300082e-01; 2.298403e-01; 2.300523e-01; 2.304152e-01; 2.309443e-01; 2.317897e-01; 2.329737e-01; 2.344777e-01; 2.357412e-01; 2.369674e-01; 2.392415e-01; 2.427653e-01; 2.475988e-01; 2.525186e-01; 2.564763e-01; 2.590454e-01; 2.608279e-01; 2.620448e-01; 2.624830e-01; 2.627645e-01; 2.633718e-01; 2.635331e-01; 2.635980e-01; 2.636506e-01; 2.636341e-01; 2.635365e-01; 2.632789e-01; 2.628512e-01; 2.624708e-01; 2.623975e-01; 2.621184e-01; 2.616504e-01; 2.612280e-01; 2.611851e-01; 2.614569e-01; 2.617383e-01; 2.623395e-01; 2.630449e-01; 2.636139e-01; 2.644887e-01; 2.656180e-01; 2.668146e-01; 2.679182e-01; 2.688232e-01; 2.698075e-01; 2.705965e-01; 2.710813e-01; 2.713626e-01; 2.718888e-01; 2.726313e-01; 2.732771e-01; 2.742475e-01; 2.753529e-01; 2.764095e-01; 2.774046e-01; 2.784773e-01; 2.790491e-01; 2.795956e-01; 2.801288e-01; 2.802839e-01; 2.806141e-01; 2.805956e-01; 2.806485e-01; 2.808435e-01; 2.806583e-01; 2.804680e-01; 2.804279e-01; 2.802942e-01; 2.800930e-01; 2.800480e-01; 2.799340e-01; 2.798448e-01; 2.797983e-01; 2.795735e-01; 2.793868e-01; 2.791612e-01; 2.789450e-01; 2.788717e-01; 2.786061e-01; 2.782838e-01; 2.779839e-01; 2.777458e-01; 2.774303e-01; 2.772364e-01; 2.771399e-01; 2.770221e-01; 2.767431e-01; 2.766321e-01; 2.762776e-01; 2.760350e-01; 2.760692e-01; 2.756732e-01; 2.754487e-01; 2.753462e-01; 2.751178e-01; 2.749672e-01; 2.748293e-01; 2.745972e-01; 2.743409e-01; 2.740585e-01
"51";"carmenere";"Etalon6-9";2022-08-11; 30.8267842;138.24887; 498.93866; 462.771615;  77.58580; 961.71027;1.0781531; 0.222980376;"carmenère";"9";223;0.9230;"2022";"rouge"; 2.504625e-01; 2.471562e-01; 2.449198e-01; 2.438938e-01; 2.431631e-01; 2.430421e-01; 2.426452e-01; 2.454610e-01; 2.478683e-01; 2.474631e-01; 2.492756e-01; 2.514116e-01; 2.510615e-01; 2.509038e-01; 2.502197e-01; 2.478715e-01; 2.473235e-01; 2.465368e-01; 2.446310e-01; 2.426838e-01; 2.410737e-01; 2.395876e-01; 2.383023e-01; 2.366259e-01; 2.361308e-01; 2.364026e-01; 2.358642e-01; 2.361553e-01; 2.367520e-01; 2.373159e-01; 2.383393e-01; 2.395419e-01; 2.409416e-01; 2.422556e-01; 2.434259e-01; 2.452357e-01; 2.483490e-01; 2.521323e-01; 2.558106e-01; 2.591362e-01; 2.614091e-01; 2.628916e-01; 2.639336e-01; 2.643923e-01; 2.645662e-01; 2.648292e-01; 2.649300e-01; 2.650458e-01; 2.650925e-01; 2.650777e-01; 2.651220e-01; 2.651307e-01; 2.650352e-01; 2.649555e-01; 2.649261e-01; 2.645682e-01; 2.642658e-01; 2.639829e-01; 2.639715e-01; 2.643375e-01; 2.645638e-01; 2.651543e-01; 2.658065e-01; 2.660848e-01; 2.667669e-01; 2.675945e-01; 2.683448e-01; 2.690519e-01; 2.696503e-01; 2.703315e-01; 2.708615e-01; 2.710919e-01; 2.712761e-01; 2.717600e-01; 2.722814e-01; 2.728221e-01; 2.737683e-01; 2.749912e-01; 2.762935e-01; 2.775785e-01; 2.787849e-01; 2.796684e-01; 2.802705e-01; 2.807861e-01; 2.809933e-01; 2.812001e-01; 2.814420e-01; 2.814109e-01; 2.815125e-01; 2.814884e-01; 2.814467e-01; 2.812521e-01; 2.811086e-01; 2.807987e-01; 2.808198e-01; 2.805506e-01; 2.804236e-01; 2.804867e-01; 2.801529e-01; 2.799331e-01; 2.797012e-01; 2.794967e-01; 2.792507e-01; 2.789323e-01; 2.786489e-01; 2.783253e-01; 2.780716e-01; 2.776988e-01; 2.774581e-01; 2.773826e-01; 2.771379e-01; 2.769091e-01; 2.766939e-01; 2.763944e-01; 2.762294e-01; 2.762135e-01; 2.759918e-01; 2.758032e-01; 2.757027e-01; 2.754949e-01; 2.753803e-01; 2.753275e-01; 2.751806e-01; 2.752713e-01; 2.752859e-01
"52";"carmenere";"Etalon6-8";2022-08-11; 34.5959231;137.32922; 603.16641; 504.875742; 105.87206;1108.04215;1.1946829; 0.251919601;"carmenère";"8";223;0.6550;"2022";"rouge"; 2.470270e-01; 2.461272e-01; 2.420150e-01; 2.410161e-01; 2.395200e-01; 2.403668e-01; 2.402986e-01; 2.423276e-01; 2.453453e-01; 2.474103e-01; 2.493856e-01; 2.504364e-01; 2.500888e-01; 2.495296e-01; 2.485620e-01; 2.470967e-01; 2.454767e-01; 2.433573e-01; 2.420311e-01; 2.395966e-01; 2.370604e-01; 2.355911e-01; 2.342220e-01; 2.322811e-01; 2.315657e-01; 2.311694e-01; 2.305730e-01; 2.305711e-01; 2.310154e-01; 2.316903e-01; 2.323916e-01; 2.335700e-01; 2.348251e-01; 2.361764e-01; 2.374216e-01; 2.392603e-01; 2.428017e-01; 2.478101e-01; 2.521115e-01; 2.556148e-01; 2.581916e-01; 2.599838e-01; 2.613143e-01; 2.615222e-01; 2.614695e-01; 2.618067e-01; 2.622814e-01; 2.623309e-01; 2.621652e-01; 2.621680e-01; 2.620176e-01; 2.617632e-01; 2.616338e-01; 2.612765e-01; 2.610453e-01; 2.607695e-01; 2.604083e-01; 2.600997e-01; 2.600280e-01; 2.601937e-01; 2.604957e-01; 2.609815e-01; 2.616612e-01; 2.621205e-01; 2.627552e-01; 2.635763e-01; 2.645366e-01; 2.653022e-01; 2.659386e-01; 2.667507e-01; 2.671925e-01; 2.673667e-01; 2.675884e-01; 2.680763e-01; 2.685750e-01; 2.690817e-01; 2.700586e-01; 2.710852e-01; 2.721067e-01; 2.732816e-01; 2.744435e-01; 2.751637e-01; 2.757525e-01; 2.763088e-01; 2.765664e-01; 2.766610e-01; 2.768582e-01; 2.767907e-01; 2.770214e-01; 2.768190e-01; 2.767425e-01; 2.765764e-01; 2.764039e-01; 2.759697e-01; 2.759976e-01; 2.759135e-01; 2.757425e-01; 2.756859e-01; 2.753749e-01; 2.751682e-01; 2.749428e-01; 2.746879e-01; 2.743995e-01; 2.741990e-01; 2.739701e-01; 2.736001e-01; 2.733385e-01; 2.729198e-01; 2.727183e-01; 2.725218e-01; 2.723755e-01; 2.720780e-01; 2.719054e-01; 2.715751e-01; 2.714230e-01; 2.714255e-01; 2.710475e-01; 2.709021e-01; 2.708151e-01; 2.706216e-01; 2.704963e-01; 2.703216e-01; 2.701909e-01; 2.702051e-01; 2.701432e-01
"53";"carmenere";"Etalon2-36";2022-07-15;157.3152164;152.04675; 205.94281; 152.382729; 625.36108; 358.32554;1.3514839; 1.034650295;NA;"36";196;0.8480;"2022";"rouge"; 2.911651e-01; 2.924232e-01; 2.976826e-01; 2.892904e-01; 2.723773e-01; 2.750330e-01; 2.781471e-01; 2.856805e-01; 3.008140e-01; 3.262665e-01; 3.527350e-01; 3.610882e-01; 3.751822e-01; 3.863837e-01; 3.845445e-01; 3.737867e-01; 3.616265e-01; 3.498992e-01; 3.371806e-01; 3.259419e-01; 3.147810e-01; 3.046378e-01; 2.961465e-01; 2.885975e-01; 2.826107e-01; 2.774113e-01; 2.733810e-01; 2.713003e-01; 2.692834e-01; 2.675062e-01; 2.659206e-01; 2.633749e-01; 2.596285e-01; 2.520494e-01; 2.463623e-01; 2.472852e-01; 2.536510e-01; 2.638347e-01; 2.699083e-01; 2.758238e-01; 2.857080e-01; 2.956432e-01; 3.022813e-01; 3.039943e-01; 3.038400e-01; 3.046176e-01; 3.051848e-01; 3.042568e-01; 3.037466e-01; 3.041544e-01; 3.053046e-01; 3.058318e-01; 3.061703e-01; 3.060049e-01; 3.050467e-01; 3.035003e-01; 3.007858e-01; 2.969854e-01; 2.956523e-01; 2.964937e-01; 2.979214e-01; 2.983958e-01; 2.980579e-01; 2.962042e-01; 2.941630e-01; 2.921012e-01; 2.905123e-01; 2.882859e-01; 2.846693e-01; 2.827084e-01; 2.795916e-01; 2.752098e-01; 2.729473e-01; 2.729047e-01; 2.733503e-01; 2.742170e-01; 2.753290e-01; 2.768363e-01; 2.786455e-01; 2.806158e-01; 2.822776e-01; 2.836292e-01; 2.847135e-01; 2.855030e-01; 2.861224e-01; 2.864942e-01; 2.867909e-01; 2.872625e-01; 2.881797e-01; 2.884423e-01; 2.879457e-01; 2.876191e-01; 2.876379e-01; 2.880846e-01; 2.894470e-01; 2.908044e-01; 2.917294e-01; 2.926463e-01; 2.933033e-01; 2.937182e-01; 2.940852e-01; 2.940653e-01; 2.939965e-01; 2.939446e-01; 2.934299e-01; 2.929730e-01; 2.923844e-01; 2.916032e-01; 2.909589e-01; 2.906706e-01; 2.904712e-01; 2.901964e-01; 2.897336e-01; 2.892723e-01; 2.890923e-01; 2.890538e-01; 2.888340e-01; 2.885274e-01; 2.880592e-01; 2.876267e-01; 2.873709e-01; 2.870504e-01; 2.868068e-01; 2.866413e-01; 2.863326e-01
"54";"carmenere";"Etalon8-58";2022-08-24; 28.2559027;132.66800; 643.96254; 568.448597;  33.49500;1212.41114;1.1328422; 0.212982044;NA;"58";236;1.7240;"2022";"rouge"; 2.594620e-01; 2.600180e-01; 2.597990e-01; 2.582500e-01; 2.593150e-01; 2.606110e-01; 2.635600e-01; 2.681560e-01; 2.772970e-01; 2.888870e-01; 3.026680e-01; 3.101910e-01; 3.171320e-01; 3.227520e-01; 3.220340e-01; 3.155340e-01; 3.083110e-01; 3.004450e-01; 2.924310e-01; 2.855140e-01; 2.780210e-01; 2.713420e-01; 2.657530e-01; 2.603570e-01; 2.564180e-01; 2.538830e-01; 2.527630e-01; 2.520070e-01; 2.523750e-01; 2.535240e-01; 2.552190e-01; 2.559420e-01; 2.565880e-01; 2.557190e-01; 2.549810e-01; 2.560270e-01; 2.592820e-01; 2.639760e-01; 2.669920e-01; 2.698540e-01; 2.759030e-01; 2.833680e-01; 2.883060e-01; 2.900740e-01; 2.901870e-01; 2.907770e-01; 2.913370e-01; 2.910170e-01; 2.908760e-01; 2.914570e-01; 2.926320e-01; 2.935860e-01; 2.941460e-01; 2.939550e-01; 2.932330e-01; 2.923800e-01; 2.903460e-01; 2.871920e-01; 2.862640e-01; 2.871860e-01; 2.883840e-01; 2.884470e-01; 2.879470e-01; 2.864340e-01; 2.843230e-01; 2.825060e-01; 2.810320e-01; 2.790360e-01; 2.763790e-01; 2.751150e-01; 2.732680e-01; 2.709190e-01; 2.696720e-01; 2.695560e-01; 2.697120e-01; 2.702560e-01; 2.707500e-01; 2.714540e-01; 2.722540e-01; 2.731340e-01; 2.739170e-01; 2.744600e-01; 2.748530e-01; 2.748560e-01; 2.747640e-01; 2.748060e-01; 2.746800e-01; 2.746780e-01; 2.749800e-01; 2.748590e-01; 2.745980e-01; 2.746340e-01; 2.745590e-01; 2.747390e-01; 2.754810e-01; 2.762400e-01; 2.770480e-01; 2.778780e-01; 2.784390e-01; 2.788800e-01; 2.792330e-01; 2.794090e-01; 2.795640e-01; 2.795670e-01; 2.793760e-01; 2.791780e-01; 2.788750e-01; 2.783670e-01; 2.780710e-01; 2.779850e-01; 2.779500e-01; 2.778180e-01; 2.776370e-01; 2.773900e-01; 2.773760e-01; 2.774970e-01; 2.773530e-01; 2.771340e-01; 2.769180e-01; 2.767960e-01; 2.766100e-01; 2.764000e-01; 2.761930e-01; 2.759910e-01; 2.756420e-01
"55";"carmenere";"Etalon7-39";2022-08-18; 48.4609060;106.56339; 613.79286; 553.757116;  62.13694;1167.54997;1.1084153; 0.454761307;"carmenere";"39";230;1.2840;"2022";"rouge"; 2.514990e-01; 2.496480e-01; 2.467470e-01; 2.477880e-01; 2.447940e-01; 2.443730e-01; 2.443600e-01; 2.456620e-01; 2.478140e-01; 2.493940e-01; 2.492170e-01; 2.494390e-01; 2.491970e-01; 2.497320e-01; 2.495800e-01; 2.485250e-01; 2.474430e-01; 2.454820e-01; 2.434460e-01; 2.422530e-01; 2.412150e-01; 2.404280e-01; 2.396580e-01; 2.381730e-01; 2.374290e-01; 2.375500e-01; 2.373000e-01; 2.369230e-01; 2.372920e-01; 2.379300e-01; 2.385690e-01; 2.391100e-01; 2.396260e-01; 2.408340e-01; 2.420900e-01; 2.432200e-01; 2.455210e-01; 2.489760e-01; 2.527520e-01; 2.554000e-01; 2.573680e-01; 2.586010e-01; 2.593570e-01; 2.600430e-01; 2.605100e-01; 2.606200e-01; 2.606010e-01; 2.607000e-01; 2.607090e-01; 2.605800e-01; 2.604610e-01; 2.601510e-01; 2.598830e-01; 2.598450e-01; 2.597150e-01; 2.591910e-01; 2.591040e-01; 2.590230e-01; 2.589630e-01; 2.590730e-01; 2.592240e-01; 2.596650e-01; 2.602040e-01; 2.608090e-01; 2.614720e-01; 2.623770e-01; 2.634040e-01; 2.645980e-01; 2.655650e-01; 2.665280e-01; 2.674970e-01; 2.681380e-01; 2.685710e-01; 2.691970e-01; 2.698940e-01; 2.705350e-01; 2.714210e-01; 2.724680e-01; 2.736850e-01; 2.747980e-01; 2.758080e-01; 2.765400e-01; 2.769880e-01; 2.772790e-01; 2.774550e-01; 2.774540e-01; 2.775290e-01; 2.774320e-01; 2.773650e-01; 2.771560e-01; 2.769890e-01; 2.769330e-01; 2.768070e-01; 2.764700e-01; 2.762720e-01; 2.759710e-01; 2.756040e-01; 2.753980e-01; 2.751480e-01; 2.747570e-01; 2.745290e-01; 2.743590e-01; 2.739980e-01; 2.737970e-01; 2.734800e-01; 2.731810e-01; 2.729100e-01; 2.727820e-01; 2.725120e-01; 2.722800e-01; 2.722400e-01; 2.719040e-01; 2.717010e-01; 2.714940e-01; 2.713150e-01; 2.713310e-01; 2.709600e-01; 2.707320e-01; 2.705890e-01; 2.704260e-01; 2.703350e-01; 2.702520e-01; 2.702080e-01; 2.702950e-01; 2.702840e-01
"56";"carmenere";"Etalon6-5";2022-08-11; 29.2628699;126.25526; 494.09156; 432.673933;  70.13691; 926.76549;1.1419490; 0.231775444;"carmenère";"5";223;1.2400;"2022";"rouge"; 2.573629e-01; 2.553103e-01; 2.532677e-01; 2.525430e-01; 2.521783e-01; 2.523016e-01; 2.529989e-01; 2.552231e-01; 2.571898e-01; 2.582115e-01; 2.605644e-01; 2.610588e-01; 2.606439e-01; 2.605507e-01; 2.598774e-01; 2.582724e-01; 2.573646e-01; 2.557254e-01; 2.540319e-01; 2.526846e-01; 2.506855e-01; 2.489630e-01; 2.479800e-01; 2.461043e-01; 2.457879e-01; 2.452472e-01; 2.449547e-01; 2.454010e-01; 2.455253e-01; 2.460887e-01; 2.471433e-01; 2.478310e-01; 2.489995e-01; 2.501951e-01; 2.514868e-01; 2.529441e-01; 2.552799e-01; 2.588674e-01; 2.621437e-01; 2.647324e-01; 2.667683e-01; 2.680163e-01; 2.688768e-01; 2.692101e-01; 2.692935e-01; 2.694330e-01; 2.696230e-01; 2.698157e-01; 2.696339e-01; 2.695748e-01; 2.696618e-01; 2.696155e-01; 2.693245e-01; 2.691143e-01; 2.691588e-01; 2.689876e-01; 2.684981e-01; 2.680849e-01; 2.680420e-01; 2.682764e-01; 2.686058e-01; 2.691010e-01; 2.694546e-01; 2.697321e-01; 2.701926e-01; 2.706708e-01; 2.714389e-01; 2.718687e-01; 2.722187e-01; 2.728263e-01; 2.731954e-01; 2.732716e-01; 2.733420e-01; 2.737089e-01; 2.742060e-01; 2.746753e-01; 2.755930e-01; 2.767093e-01; 2.779162e-01; 2.790555e-01; 2.802151e-01; 2.810352e-01; 2.816348e-01; 2.821124e-01; 2.822853e-01; 2.825551e-01; 2.826172e-01; 2.825955e-01; 2.827574e-01; 2.824926e-01; 2.823690e-01; 2.822543e-01; 2.819457e-01; 2.818075e-01; 2.815780e-01; 2.814625e-01; 2.812728e-01; 2.811367e-01; 2.808679e-01; 2.805884e-01; 2.804334e-01; 2.801201e-01; 2.798309e-01; 2.795598e-01; 2.791906e-01; 2.788193e-01; 2.786763e-01; 2.782316e-01; 2.779300e-01; 2.777792e-01; 2.774119e-01; 2.771814e-01; 2.771093e-01; 2.766825e-01; 2.764335e-01; 2.764505e-01; 2.760770e-01; 2.759098e-01; 2.757737e-01; 2.755649e-01; 2.753752e-01; 2.751495e-01; 2.749488e-01; 2.748975e-01; 2.747617e-01
"57";"carmenere";"Etalon3-4";2022-07-26; 61.9477066;137.66756; 366.62764; 302.115785; 255.55732; 668.74343;1.2135335; 0.449980421;"carmenere";"4";207;0.9880;"2022";"rouge"; 3.279076e-01; 3.349822e-01; 3.477426e-01; 3.372684e-01; 3.148373e-01; 3.225625e-01; 3.307586e-01; 3.437918e-01; 3.654378e-01; 3.997796e-01; 4.340644e-01; 4.481938e-01; 4.632474e-01; 4.708392e-01; 4.660906e-01; 4.505817e-01; 4.354424e-01; 4.203386e-01; 4.033885e-01; 3.900874e-01; 3.768431e-01; 3.640188e-01; 3.532425e-01; 3.435262e-01; 3.346661e-01; 3.271553e-01; 3.220508e-01; 3.176424e-01; 3.133624e-01; 3.108860e-01; 3.078912e-01; 3.033741e-01; 2.972518e-01; 2.861137e-01; 2.758549e-01; 2.757041e-01; 2.813217e-01; 2.912181e-01; 2.958114e-01; 3.006132e-01; 3.113082e-01; 3.220941e-01; 3.283758e-01; 3.293151e-01; 3.284178e-01; 3.285017e-01; 3.286392e-01; 3.270957e-01; 3.261703e-01; 3.264594e-01; 3.268498e-01; 3.267022e-01; 3.264593e-01; 3.260092e-01; 3.244034e-01; 3.222401e-01; 3.194357e-01; 3.151058e-01; 3.133320e-01; 3.138708e-01; 3.150246e-01; 3.155040e-01; 3.150159e-01; 3.129842e-01; 3.107734e-01; 3.085281e-01; 3.063824e-01; 3.035622e-01; 2.998041e-01; 2.971250e-01; 2.925834e-01; 2.858728e-01; 2.820301e-01; 2.811725e-01; 2.813571e-01; 2.819528e-01; 2.828173e-01; 2.839802e-01; 2.854322e-01; 2.871935e-01; 2.884542e-01; 2.897312e-01; 2.908240e-01; 2.917663e-01; 2.925478e-01; 2.928378e-01; 2.931708e-01; 2.938370e-01; 2.948588e-01; 2.950464e-01; 2.945755e-01; 2.942499e-01; 2.941982e-01; 2.944850e-01; 2.956230e-01; 2.965464e-01; 2.971939e-01; 2.977637e-01; 2.982433e-01; 2.984241e-01; 2.985135e-01; 2.983820e-01; 2.982081e-01; 2.978531e-01; 2.975296e-01; 2.970937e-01; 2.965363e-01; 2.957696e-01; 2.952540e-01; 2.949711e-01; 2.948114e-01; 2.944424e-01; 2.940849e-01; 2.936526e-01; 2.934182e-01; 2.934211e-01; 2.931706e-01; 2.927995e-01; 2.923458e-01; 2.919920e-01; 2.916517e-01; 2.914799e-01; 2.912177e-01; 2.909163e-01; 2.906733e-01
"58";"carmenere";"Etalon2-29";2022-07-15;112.4561154;124.49380; 302.00674; 230.371706; 568.62595; 532.37844;1.3109541; 0.903306937;NA;"29";196;1.2290;"2022";"rouge"; 3.080915e-01; 3.116722e-01; 3.198789e-01; 3.117158e-01; 2.919271e-01; 2.942946e-01; 2.983073e-01; 3.065775e-01; 3.226584e-01; 3.515789e-01; 3.808965e-01; 3.904319e-01; 4.076799e-01; 4.226112e-01; 4.212580e-01; 4.098799e-01; 3.985909e-01; 3.879244e-01; 3.740054e-01; 3.627169e-01; 3.527815e-01; 3.429243e-01; 3.331465e-01; 3.242320e-01; 3.179174e-01; 3.117456e-01; 3.069500e-01; 3.034804e-01; 3.001256e-01; 2.977169e-01; 2.947534e-01; 2.901177e-01; 2.837718e-01; 2.733514e-01; 2.652919e-01; 2.651795e-01; 2.697940e-01; 2.781279e-01; 2.821911e-01; 2.866571e-01; 2.966525e-01; 3.075190e-01; 3.141881e-01; 3.161266e-01; 3.157046e-01; 3.162736e-01; 3.170052e-01; 3.159001e-01; 3.155497e-01; 3.163486e-01; 3.174373e-01; 3.182114e-01; 3.188876e-01; 3.189107e-01; 3.180095e-01; 3.164504e-01; 3.137211e-01; 3.095672e-01; 3.082531e-01; 3.091055e-01; 3.103258e-01; 3.104142e-01; 3.096074e-01; 3.071882e-01; 3.043702e-01; 3.016265e-01; 2.994818e-01; 2.967179e-01; 2.926503e-01; 2.901765e-01; 2.866475e-01; 2.819327e-01; 2.793814e-01; 2.792617e-01; 2.796156e-01; 2.803199e-01; 2.813582e-01; 2.827468e-01; 2.844230e-01; 2.861244e-01; 2.876818e-01; 2.888643e-01; 2.898181e-01; 2.906592e-01; 2.911134e-01; 2.914147e-01; 2.916993e-01; 2.922992e-01; 2.932071e-01; 2.935998e-01; 2.930045e-01; 2.927213e-01; 2.927491e-01; 2.932766e-01; 2.947539e-01; 2.961830e-01; 2.972969e-01; 2.982534e-01; 2.989649e-01; 2.995065e-01; 2.999718e-01; 3.000201e-01; 2.999841e-01; 2.998813e-01; 2.994762e-01; 2.992002e-01; 2.984907e-01; 2.977181e-01; 2.971154e-01; 2.968679e-01; 2.966537e-01; 2.964348e-01; 2.959035e-01; 2.956009e-01; 2.954809e-01; 2.953839e-01; 2.951269e-01; 2.947839e-01; 2.943218e-01; 2.939464e-01; 2.936863e-01; 2.933889e-01; 2.931332e-01; 2.929062e-01; 2.926360e-01
"59";"carmenere";"Etalon6-3";2022-08-11; 23.9838350;138.08562; 461.48193; 404.623409;  72.10196; 866.10534;1.1405221; 0.173688149;"carmenère";"3";223;1.0030;"2022";"rouge"; 2.492220e-01; 2.454644e-01; 2.432037e-01; 2.406172e-01; 2.402299e-01; 2.398558e-01; 2.402386e-01; 2.411731e-01; 2.434527e-01; 2.449700e-01; 2.455951e-01; 2.471166e-01; 2.464734e-01; 2.458041e-01; 2.453883e-01; 2.440376e-01; 2.424202e-01; 2.406708e-01; 2.383720e-01; 2.357535e-01; 2.340459e-01; 2.328496e-01; 2.314558e-01; 2.298431e-01; 2.291875e-01; 2.288794e-01; 2.281717e-01; 2.280622e-01; 2.289036e-01; 2.295512e-01; 2.304462e-01; 2.317236e-01; 2.331159e-01; 2.349687e-01; 2.365621e-01; 2.386765e-01; 2.421632e-01; 2.465121e-01; 2.512402e-01; 2.553462e-01; 2.581934e-01; 2.599892e-01; 2.609494e-01; 2.614576e-01; 2.618253e-01; 2.622339e-01; 2.626544e-01; 2.627860e-01; 2.626535e-01; 2.625320e-01; 2.622759e-01; 2.619910e-01; 2.617987e-01; 2.614341e-01; 2.610809e-01; 2.608289e-01; 2.605094e-01; 2.600245e-01; 2.601034e-01; 2.603818e-01; 2.606871e-01; 2.613317e-01; 2.620139e-01; 2.628307e-01; 2.637898e-01; 2.650027e-01; 2.664466e-01; 2.677682e-01; 2.689178e-01; 2.702618e-01; 2.711364e-01; 2.718059e-01; 2.724461e-01; 2.732009e-01; 2.741469e-01; 2.750727e-01; 2.763804e-01; 2.779475e-01; 2.792913e-01; 2.807977e-01; 2.819808e-01; 2.828740e-01; 2.835004e-01; 2.839291e-01; 2.840556e-01; 2.842860e-01; 2.843036e-01; 2.842236e-01; 2.843972e-01; 2.843176e-01; 2.841790e-01; 2.840481e-01; 2.838012e-01; 2.836877e-01; 2.835760e-01; 2.834904e-01; 2.832714e-01; 2.832987e-01; 2.829417e-01; 2.826383e-01; 2.824735e-01; 2.821653e-01; 2.819188e-01; 2.816210e-01; 2.813288e-01; 2.809767e-01; 2.805981e-01; 2.803014e-01; 2.799667e-01; 2.797513e-01; 2.795712e-01; 2.792747e-01; 2.790012e-01; 2.785938e-01; 2.783997e-01; 2.783110e-01; 2.779590e-01; 2.777250e-01; 2.775093e-01; 2.773168e-01; 2.771626e-01; 2.769794e-01; 2.766765e-01; 2.764778e-01; 2.761894e-01
"60";"carmenere";"Etalon8-50";2022-08-24; 12.2997591;175.90545; 295.33461; 285.780670;  51.22562; 581.11528;1.0334310; 0.069922560;NA;"50";236;1.1680;"2022";"rouge"; 2.499350e-01; 2.512620e-01; 2.479580e-01; 2.484440e-01; 2.487160e-01; 2.523890e-01; 2.530790e-01; 2.576780e-01; 2.654560e-01; 2.762660e-01; 2.892520e-01; 2.938050e-01; 2.997220e-01; 3.012870e-01; 2.988030e-01; 2.920990e-01; 2.839240e-01; 2.763470e-01; 2.687940e-01; 2.605070e-01; 2.526230e-01; 2.463750e-01; 2.402030e-01; 2.350200e-01; 2.318160e-01; 2.291120e-01; 2.285910e-01; 2.289490e-01; 2.297400e-01; 2.317370e-01; 2.345140e-01; 2.368970e-01; 2.390850e-01; 2.399650e-01; 2.404810e-01; 2.425350e-01; 2.466770e-01; 2.527170e-01; 2.579000e-01; 2.625910e-01; 2.690810e-01; 2.765840e-01; 2.809070e-01; 2.824820e-01; 2.828140e-01; 2.835050e-01; 2.840230e-01; 2.834510e-01; 2.832040e-01; 2.838140e-01; 2.846320e-01; 2.849720e-01; 2.851440e-01; 2.850020e-01; 2.840000e-01; 2.826530e-01; 2.806670e-01; 2.777180e-01; 2.768570e-01; 2.778040e-01; 2.790600e-01; 2.797160e-01; 2.796940e-01; 2.788710e-01; 2.775900e-01; 2.767090e-01; 2.762560e-01; 2.753660e-01; 2.738940e-01; 2.732930e-01; 2.722860e-01; 2.706920e-01; 2.701780e-01; 2.704490e-01; 2.711250e-01; 2.720980e-01; 2.734530e-01; 2.747090e-01; 2.761440e-01; 2.773780e-01; 2.782360e-01; 2.787720e-01; 2.793210e-01; 2.792960e-01; 2.792530e-01; 2.791110e-01; 2.790850e-01; 2.789810e-01; 2.793260e-01; 2.791060e-01; 2.788980e-01; 2.786330e-01; 2.786820e-01; 2.788130e-01; 2.794430e-01; 2.802290e-01; 2.809890e-01; 2.817090e-01; 2.822790e-01; 2.824190e-01; 2.827360e-01; 2.827980e-01; 2.827940e-01; 2.827590e-01; 2.825870e-01; 2.822800e-01; 2.817670e-01; 2.811630e-01; 2.807130e-01; 2.804600e-01; 2.804550e-01; 2.801600e-01; 2.797520e-01; 2.795030e-01; 2.794730e-01; 2.795070e-01; 2.791560e-01; 2.789650e-01; 2.786970e-01; 2.783940e-01; 2.782190e-01; 2.780070e-01; 2.778110e-01; 2.776500e-01; 2.774190e-01
"61";"carmenere";"Etalon4-43";2022-07-29; 74.2892570;148.34805; 364.99754; 288.789238; 184.61783; 653.78678;1.2638890; 0.500776779;"carmenere";"43";210;1.6320;"2022";"rouge"; 2.560384e-01; 2.566042e-01; 2.556571e-01; 2.536937e-01; 2.513601e-01; 2.526129e-01; 2.517667e-01; 2.551419e-01; 2.603646e-01; 2.660399e-01; 2.714080e-01; 2.728404e-01; 2.766469e-01; 2.797931e-01; 2.795044e-01; 2.766878e-01; 2.728825e-01; 2.692239e-01; 2.656588e-01; 2.622425e-01; 2.577953e-01; 2.541000e-01; 2.513121e-01; 2.484390e-01; 2.464991e-01; 2.454791e-01; 2.442265e-01; 2.441441e-01; 2.453154e-01; 2.455350e-01; 2.461551e-01; 2.467644e-01; 2.475134e-01; 2.474132e-01; 2.478633e-01; 2.494648e-01; 2.525715e-01; 2.571652e-01; 2.611960e-01; 2.644301e-01; 2.676566e-01; 2.710586e-01; 2.734532e-01; 2.742433e-01; 2.742016e-01; 2.742259e-01; 2.744064e-01; 2.743424e-01; 2.741273e-01; 2.742787e-01; 2.743407e-01; 2.743513e-01; 2.746028e-01; 2.745191e-01; 2.742673e-01; 2.737364e-01; 2.728732e-01; 2.719773e-01; 2.716063e-01; 2.718639e-01; 2.727033e-01; 2.731424e-01; 2.732630e-01; 2.731508e-01; 2.728483e-01; 2.727844e-01; 2.730023e-01; 2.729649e-01; 2.727891e-01; 2.730066e-01; 2.730951e-01; 2.727533e-01; 2.726439e-01; 2.729321e-01; 2.734584e-01; 2.738956e-01; 2.748648e-01; 2.759505e-01; 2.770331e-01; 2.782298e-01; 2.790889e-01; 2.799837e-01; 2.805887e-01; 2.810079e-01; 2.811863e-01; 2.812080e-01; 2.813750e-01; 2.813255e-01; 2.814590e-01; 2.812661e-01; 2.811949e-01; 2.810263e-01; 2.807508e-01; 2.805760e-01; 2.803898e-01; 2.800190e-01; 2.797650e-01; 2.795910e-01; 2.792959e-01; 2.789588e-01; 2.787927e-01; 2.785833e-01; 2.781793e-01; 2.779823e-01; 2.776396e-01; 2.773698e-01; 2.771571e-01; 2.768957e-01; 2.766322e-01; 2.764488e-01; 2.763220e-01; 2.761043e-01; 2.759337e-01; 2.756888e-01; 2.754844e-01; 2.753253e-01; 2.750999e-01; 2.748669e-01; 2.747206e-01; 2.745524e-01; 2.744825e-01; 2.742445e-01; 2.739899e-01; 2.737404e-01; 2.733655e-01
